Time (s);Pleth
0,569;73737
0,571;73726
0,573;73726
0,575;73727
0,577;73722
0,579;73722
0,581;73734
0,583;73734
0,585;73731
0,587;73732
0,589;73724
0,591;73728
0,593;73728
0,595;73719
0,597;73715
0,599;73729
0,601;73730
0,603;73730
0,605;73731
0,607;73733
0,609;73725
0,611;73726
0,613;73726
0,615;73729
0,617;73722
0,619;73733
0,621;73728
0,623;73728
0,625;73729
0,627;73705
0,629;73701
0,631;73718
0,633;73718
0,635;73723
0,637;73733
0,639;73727
0,641;73724
0,643;73724
0,645;73742
0,647;73733
0,649;73724
0,651;73731
0,653;73731
0,655;73727
0,657;73737
0,659;73752
0,661;73752
0,663;73753
0,665;73716
0,667;73739
0,669;73737
0,671;73737
0,673;73743
0,675;73735
0,677;73730
0,679;73737
0,681;73737
0,683;73729
0,685;73739
0,687;73726
0,689;73736
0,691;73736
0,693;73743
0,695;73742
0,697;73722
0,699;73744
0,701;73744
0,703;73738
0,705;73741
0,707;73746
0,709;73737
0,711;73737
0,713;73736
0,715;73745
0,717;73736
0,719;73751
0,721;73751
0,723;73759
0,725;73750
0,727;73755
0,729;73759
0,731;73759
0,733;73762
0,735;73768
0,737;73791
0,739;73766
0,741;73766
0,743;73764
0,745;73772
0,747;73784
0,749;73784
0,751;73781
0,753;73753
0,755;73780
0,757;73783
0,759;73783
0,761;73770
0,763;73776
0,765;73777
0,767;73785
0,769;73785
0,771;73788
0,773;73789
0,775;73788
0,777;73787
0,779;73787
0,781;73791
0,783;73801
0,785;73787
0,787;73797
0,789;73797
0,791;73791
0,793;73797
0,795;73797
0,797;73798
0,799;73798
0,801;73800
0,803;73798
0,805;73802
0,807;73812
0,809;73812
0,811;73802
0,813;73800
0,815;73796
0,817;73805
0,819;73805
0,821;73828
0,823;73811
0,825;73812
0,827;73800
0,829;73800
0,831;73805
0,833;73813
0,835;73819
0,837;73819
0,839;73820
0,841;73817
0,843;73813
0,845;73817
0,847;73817
0,849;73814
0,851;73831
0,853;73829
0,855;73829
0,857;73829
0,859;73834
0,861;73834
0,863;73831
0,865;73844
0,867;73844
0,869;73838
0,871;73829
0,873;73828
0,875;73817
0,877;73817
0,879;73827
0,881;73836
0,883;73838
0,885;73834
0,887;73834
0,889;73834
0,891;73844
0,893;73838
0,895;73847
0,897;73847
0,899;73837
0,901;73839
0,903;73832
0,905;73848
0,907;73848
0,909;73845
0,911;73844
0,913;73831
0,915;73854
0,917;73854
0,919;73835
0,921;73842
0,923;73851
0,925;73851
0,927;73842
0,929;73842
0,931;73846
0,933;73865
0,935;73865
0,937;73858
0,939;73863
0,941;73877
0,943;73853
0,945;73853
0,947;73870
0,949;73853
0,951;73859
0,953;73884
0,955;73884
0,957;73870
0,959;73862
0,961;73863
0,963;73879
0,965;73879
0,967;73876
0,969;73870
0,971;73872
0,973;73871
0,975;73871
0,977;73871
0,979;73876
0,981;73884
0,983;73890
0,985;73890
0,987;73887
0,989;73867
0,991;73875
0,993;73870
0,995;73870
0,997;73864
0,999;73877
1,001;73890
1,003;73865
1,005;73865
1,007;73891
1,009;73889
1,011;73893
1,013;73882
1,015;73882
1,017;73888
1,019;73891
1,021;73896
1,023;73896
1,025;73901
1,027;73896
1,029;73896
1,031;73903
1,033;73903
1,035;73897
1,037;73900
1,039;73905
1,041;73913
1,043;73913
1,045;73901
1,047;73916
1,049;73898
1,051;73917
1,053;73917
1,055;73926
1,057;73922
1,059;73910
1,061;73917
1,063;73917
1,065;73920
1,067;73926
1,069;73922
1,071;73920
1,073;73920
1,075;73917
1,077;73925
1,079;73920
1,081;73917
1,083;73917
1,085;73924
1,087;73922
1,089;73921
1,091;73909
1,093;73909
1,095;73888
1,097;73890
1,099;73892
1,101;73863
1,103;73863
1,105;73853
1,107;73821
1,109;73823
1,111;73823
1,113;73809
1,115;73784
1,117;73771
1,119;73764
1,121;73764
1,123;73744
1,125;73734
1,127;73729
1,129;73713
1,131;73713
1,133;73703
1,135;73700
1,137;73670
1,139;73693
1,141;73693
1,143;73696
1,145;73679
1,147;73661
1,149;73670
1,151;73670
1,153;73653
1,155;73658
1,157;73646
1,159;73645
1,161;73645
1,163;73638
1,165;73643
1,167;73638
1,169;73645
1,171;73645
1,173;73642
1,175;73650
1,177;73646
1,179;73656
1,181;73656
1,183;73629
1,185;73649
1,187;73642
1,189;73631
1,191;73631
1,193;73645
1,195;73651
1,197;73651
1,199;73651
1,201;73636
1,203;73647
1,205;73641
1,207;73675
1,209;73675
1,211;73651
1,213;73656
1,215;73650
1,217;73659
1,219;73659
1,221;73661
1,223;73671
1,225;73656
1,227;73679
1,229;73679
1,231;73668
1,233;73669
1,235;73660
1,237;73681
1,239;73681
1,241;73687
1,243;73691
1,245;73692
1,247;73692
1,249;73692
1,251;73694
1,253;73698
1,255;73701
1,257;73700
1,259;73700
1,261;73698
1,263;73711
1,265;73706
1,267;73708
1,269;73708
1,271;73701
1,273;73703
1,275;73708
1,277;73707
1,279;73707
1,281;73708
1,283;73710
1,285;73718
1,287;73718
1,289;73709
1,291;73717
1,293;73720
1,295;73702
1,297;73702
1,299;73712
1,301;73722
1,303;73709
1,305;73724
1,307;73724
1,309;73724
1,311;73733
1,313;73717
1,315;73720
1,317;73720
1,319;73734
1,321;73741
1,323;73734
1,325;73736
1,327;73736
1,329;73729
1,331;73723
1,333;73726
1,335;73758
1,337;73758
1,339;73746
1,341;73747
1,343;73738
1,345;73746
1,347;73746
1,349;73761
1,351;73742
1,353;73753
1,355;73746
1,357;73746
1,359;73750
1,361;73751
1,363;73754
1,365;73749
1,367;73749
1,369;73764
1,371;73748
1,373;73753
1,375;73753
1,377;73752
1,379;73756
1,381;73749
1,383;73754
1,385;73754
1,387;73751
1,389;73758
1,391;73758
1,393;73745
1,395;73745
1,397;73756
1,399;73746
1,401;73743
1,403;73760
1,405;73760
1,407;73758
1,409;73751
1,411;73748
1,413;73746
1,415;73746
1,417;73746
1,419;73747
1,421;73726
1,423;73744
1,425;73744
1,427;73747
1,429;73735
1,431;73736
1,433;73739
1,435;73739
1,437;73744
1,439;73747
1,441;73734
1,443;73739
1,445;73739
1,447;73754
1,449;73752
1,451;73756
1,453;73737
1,455;73737
1,457;73757
1,459;73753
1,461;73759
1,463;73759
1,465;73757
1,467;73770
1,469;73759
1,471;73765
1,473;73765
1,475;73762
1,477;73769
1,479;73776
1,481;73770
1,483;73770
1,485;73769
1,487;73776
1,489;73765
1,491;73777
1,493;73777
1,495;73776
1,497;73777
1,499;73766
1,501;73781
1,503;73781
1,505;73779
1,507;73788
1,509;73774
1,511;73789
1,513;73789
1,515;73785
1,517;73782
1,519;73779
1,521;73791
1,523;73791
1,525;73795
1,527;73796
1,529;73790
1,531;73807
1,533;73807
1,535;73797
1,537;73808
1,539;73813
1,541;73804
1,543;73804
1,545;73826
1,547;73815
1,549;73823
1,551;73823
1,553;73805
1,555;73817
1,557;73816
1,559;73830
1,561;73830
1,563;73839
1,565;73823
1,567;73819
1,569;73817
1,571;73817
1,573;73833
1,575;73829
1,577;73817
1,579;73833
1,581;73833
1,583;73830
1,585;73825
1,587;73809
1,589;73834
1,591;73834
1,593;73835
1,595;73834
1,597;73831
1,599;73840
1,601;73840
1,603;73833
1,605;73849
1,607;73831
1,609;73839
1,611;73839
1,613;73850
1,615;73834
1,617;73837
1,619;73832
1,621;73832
1,623;73843
1,625;73844
1,627;73855
1,629;73860
1,631;73860
1,633;73853
1,635;73843
1,637;73861
1,639;73861
1,641;73855
1,643;73867
1,645;73848
1,647;73871
1,649;73871
1,651;73852
1,653;73851
1,655;73857
1,657;73870
1,659;73870
1,661;73873
1,663;73871
1,665;73860
1,667;73865
1,669;73865
1,671;73868
1,673;73857
1,675;73864
1,677;73876
1,679;73876
1,681;73871
1,683;73868
1,685;73870
1,687;73878
1,689;73878
1,691;73870
1,693;73883
1,695;73889
1,697;73869
1,699;73869
1,701;73881
1,703;73877
1,705;73885
1,707;73884
1,709;73884
1,711;73879
1,713;73880
1,715;73888
1,717;73887
1,719;73887
1,721;73887
1,723;73878
1,725;73893
1,727;73893
1,729;73894
1,731;73883
1,733;73887
1,735;73896
1,737;73896
1,739;73890
1,741;73899
1,743;73898
1,745;73877
1,747;73877
1,749;73907
1,751;73917
1,753;73896
1,755;73908
1,757;73908
1,759;73916
1,761;73916
1,763;73907
1,765;73913
1,767;73913
1,769;73922
1,771;73917
1,773;73896
1,775;73911
1,777;73911
1,779;73914
1,781;73918
1,783;73911
1,785;73910
1,787;73910
1,789;73918
1,791;73926
1,793;73921
1,795;73925
1,797;73925
1,799;73917
1,801;73930
1,803;73927
1,805;73931
1,807;73931
1,809;73929
1,811;73937
1,813;73939
1,815;73939
1,817;73927
1,819;73931
1,821;73929
1,823;73923
1,825;73923
1,827;73930
1,829;73923
1,831;73943
1,833;73938
1,835;73938
1,837;73943
1,839;73931
1,841;73930
1,843;73957
1,845;73957
1,847;73954
1,849;73965
1,851;73941
1,853;73971
1,855;73971
1,857;73958
1,859;73944
1,861;73935
1,863;73951
1,865;73951
1,867;73946
1,869;73936
1,871;73921
1,873;73936
1,875;73936
1,877;73921
1,879;73906
1,881;73901
1,883;73892
1,885;73892
1,887;73890
1,889;73877
1,891;73862
1,893;73845
1,895;73845
1,897;73829
1,899;73820
1,901;73813
1,903;73813
1,905;73788
1,907;73792
1,909;73778
1,911;73772
1,913;73772
1,915;73743
1,917;73729
1,919;73731
1,921;73722
1,923;73722
1,925;73720
1,927;73701
1,929;73697
1,931;73691
1,933;73691
1,935;73682
1,937;73688
1,939;73674
1,941;73679
1,943;73679
1,945;73684
1,947;73679
1,949;73674
1,951;73674
1,953;73674
1,955;73664
1,957;73679
1,959;73663
1,961;73663
1,963;73663
1,965;73654
1,967;73673
1,969;73671
1,971;73676
1,973;73676
1,975;73661
1,977;73672
1,979;73676
1,981;73667
1,983;73667
1,985;73667
1,987;73694
1,989;73693
1,991;73693
1,993;73677
1,995;73682
1,997;73682
1,999;73692
2,001;73692
2,003;73686
2,005;73684
2,007;73689
2,009;73697
2,011;73697
2,013;73687
2,015;73696
2,017;73682
2,019;73698
2,021;73698
2,023;73704
2,025;73700
2,027;73692
2,029;73699
2,031;73699
2,033;73708
2,035;73706
2,037;73682
2,039;73710
2,041;73710
2,043;73717
2,045;73723
2,047;73710
2,049;73729
2,051;73729
2,053;73719
2,055;73732
2,057;73727
2,059;73729
2,061;73729
2,063;73737
2,065;73747
2,067;73721
2,069;73731
2,071;73731
2,073;73732
2,075;73745
2,077;73747
2,079;73747
2,081;73755
2,083;73740
2,085;73749
2,087;73745
2,089;73745
2,091;73757
2,093;73746
2,095;73748
2,097;73758
2,099;73758
2,101;73764
2,103;73751
2,105;73758
2,107;73752
2,109;73752
2,111;73761
2,113;73758
2,115;73767
2,117;73763
2,119;73763
2,121;73765
2,123;73770
2,125;73752
2,127;73756
2,129;73756
2,131;73768
2,133;73769
2,135;73751
2,137;73775
2,139;73775
2,141;73750
2,143;73763
2,145;73784
2,147;73768
2,149;73768
2,151;73762
2,153;73766
2,155;73763
2,157;73773
2,159;73773
2,161;73762
2,163;73760
2,165;73762
2,167;73762
2,169;73767
2,171;73761
2,173;73763
2,175;73766
2,177;73766
2,179;73769
2,181;73760
2,183;73772
2,185;73757
2,187;73757
2,189;73761
2,191;73759
2,193;73758
2,195;73746
2,197;73746
2,199;73763
2,201;73765
2,203;73750
2,205;73757
2,207;73757
2,209;73762
2,211;73764
2,213;73750
2,215;73755
2,217;73755
2,219;73771
2,221;73759
2,223;73746
2,225;73760
2,227;73760
2,229;73752
2,231;73754
2,233;73754
2,235;73756
2,237;73756
2,239;73759
2,241;73758
2,243;73776
2,245;73760
2,247;73760
2,249;73765
2,251;73768
2,253;73776
2,255;73776
2,257;73767
2,259;73761
2,261;73779
2,263;73782
2,265;73782
2,267;73794
2,269;73774
2,271;73774
2,273;73786
2,275;73786
2,277;73784
2,279;73804
2,281;73776
2,283;73794
2,285;73794
2,287;73791
2,289;73788
2,291;73799
2,293;73798
2,295;73798
2,297;73792
2,299;73796
2,301;73802
2,303;73797
2,305;73797
2,307;73805
2,309;73802
2,311;73794
2,313;73805
2,315;73805
2,317;73796
2,319;73816
2,321;73804
2,323;73824
2,325;73824
2,327;73814
2,329;73798
2,331;73821
2,333;73831
2,335;73831
2,337;73824
2,339;73824
2,341;73834
2,343;73824
2,345;73824
2,347;73826
2,349;73832
2,351;73846
2,353;73846
2,355;73830
2,357;73827
2,359;73831
2,361;73834
2,363;73834
2,365;73835
2,367;73844
2,369;73838
2,371;73847
2,373;73847
2,375;73837
2,377;73840
2,379;73831
2,381;73843
2,383;73843
2,385;73852
2,387;73836
2,389;73841
2,391;73843
2,393;73843
2,395;73833
2,397;73852
2,399;73847
2,401;73858
2,403;73858
2,405;73846
2,407;73844
2,409;73836
2,411;73851
2,413;73851
2,415;73863
2,417;73856
2,419;73858
2,421;73853
2,423;73853
2,425;73851
2,427;73854
2,429;73863
2,431;73846
2,433;73846
2,435;73856
2,437;73867
2,439;73861
2,441;73861
2,443;73852
2,445;73853
2,447;73869
2,449;73873
2,451;73873
2,453;73864
2,455;73859
2,457;73855
2,459;73866
2,461;73866
2,463;73861
2,465;73864
2,467;73859
2,469;73879
2,471;73879
2,473;73878
2,475;73876
2,477;73863
2,479;73885
2,481;73885
2,483;73881
2,485;73881
2,487;73850
2,489;73875
2,491;73875
2,493;73889
2,495;73888
2,497;73878
2,499;73901
2,501;73901
2,503;73885
2,505;73874
2,507;73889
2,509;73888
2,511;73888
2,513;73888
2,515;73887
2,517;73909
2,519;73888
2,521;73888
2,523;73887
2,525;73878
2,527;73894
2,529;73894
2,531;73897
2,533;73890
2,535;73878
2,537;73885
2,539;73885
2,541;73889
2,543;73896
2,545;73893
2,547;73895
2,549;73895
2,551;73907
2,553;73899
2,555;73905
2,557;73902
2,559;73902
2,561;73904
2,563;73913
2,565;73900
2,567;73918
2,569;73918
2,571;73922
2,573;73918
2,575;73903
2,577;73909
2,579;73909
2,581;73915
2,583;73919
2,585;73914
2,587;73913
2,589;73913
2,591;73931
2,593;73929
2,595;73953
2,597;73923
2,599;73923
2,601;73921
2,603;73931
2,605;73933
2,607;73930
2,609;73930
2,611;73933
2,613;73943
2,615;73928
2,617;73928
2,619;73923
2,621;73901
2,623;73906
2,625;73901
2,627;73901
2,629;73889
2,631;73884
2,633;73873
2,635;73853
2,637;73853
2,639;73849
2,641;73836
2,643;73820
2,645;73801
2,647;73801
2,649;73807
2,651;73788
2,653;73775
2,655;73771
2,657;73771
2,659;73762
2,661;73745
2,663;73732
2,665;73729
2,667;73729
2,669;73730
2,671;73719
2,673;73676
2,675;73694
2,677;73694
2,679;73689
2,681;73684
2,683;73685
2,685;73670
2,687;73670
2,689;73669
2,691;73663
2,693;73674
2,695;73651
2,697;73651
2,699;73652
2,701;73672
2,703;73653
2,705;73653
2,707;73652
2,709;73649
2,711;73647
2,713;73654
2,715;73654
2,717;73653
2,719;73647
2,721;73641
2,723;73658
2,725;73658
2,727;73647
2,729;73654
2,731;73639
2,733;73655
2,735;73655
2,737;73652
2,739;73644
2,741;73652
2,743;73662
2,745;73662
2,747;73676
2,749;73662
2,751;73669
2,753;73682
2,755;73682
2,757;73678
2,759;73679
2,761;73673
2,763;73693
2,765;73693
2,767;73688
2,769;73681
2,771;73674
2,773;73683
2,775;73683
2,777;73698
2,779;73666
2,781;73708
2,783;73688
2,785;73688
2,787;73688
2,789;73691
2,791;73706
2,793;73706
2,795;73701
2,797;73691
2,799;73708
2,801;73707
2,803;73707
2,805;73707
2,807;73705
2,809;73700
2,811;73718
2,813;73718
2,815;73708
2,817;73707
2,819;73699
2,821;73714
2,823;73714
2,825;73722
2,827;73705
2,829;73707
2,831;73710
2,833;73710
2,835;73714
2,837;73699
2,839;73701
2,841;73723
2,843;73723
2,845;73720
2,847;73729
2,849;73726
2,851;73728
2,853;73728
2,855;73734
2,857;73738
2,859;73722
2,861;73735
2,863;73735
2,865;73737
2,867;73740
2,869;73750
2,871;73749
2,873;73749
2,875;73751
2,877;73752
2,879;73763
2,881;73742
2,883;73742
2,885;73743
2,887;73764
2,889;73751
2,891;73751
2,893;73743
2,895;73759
2,897;73735
2,899;73747
2,901;73747
2,903;73743
2,905;73752
2,907;73732
2,909;73742
2,911;73742
2,913;73749
2,915;73742
2,917;73747
2,919;73744
2,921;73744
2,923;73752
2,925;73744
2,927;73730
2,929;73736
2,931;73736
2,933;73729
2,935;73744
2,937;73719
2,939;73736
2,941;73736
2,943;73732
2,945;73735
2,947;73726
2,949;73745
2,951;73745
2,953;73748
2,955;73741
2,957;73742
2,959;73740
2,961;73740
2,963;73751
2,965;73737
2,967;73737
2,969;73739
2,971;73739
2,973;73748
2,975;73742
2,977;73747
2,979;73747
2,981;73734
2,983;73755
2,985;73746
2,987;73752
2,989;73752
2,991;73744
2,993;73747
2,995;73747
2,997;73756
2,999;73756
3,001;73751
3,003;73754
3,005;73740
3,007;73759
3,009;73759
3,011;73751
3,013;73754
3,015;73746
3,017;73763
3,019;73763
3,021;73769
3,023;73765
3,025;73759
3,027;73759
3,029;73759
3,031;73764
3,033;73775
3,035;73764
3,037;73782
3,039;73782
3,041;73795
3,043;73778
3,045;73799
3,047;73780
3,049;73780
3,051;73784
3,053;73793
3,055;73800
3,057;73788
3,059;73788
3,061;73800
3,063;73797
3,065;73804
3,067;73804
3,069;73803
3,071;73778
3,073;73798
3,075;73809
3,077;73809
3,079;73808
3,081;73800
3,083;73796
3,085;73809
3,087;73809
3,089;73821
3,091;73806
3,093;73813
3,095;73814
3,097;73814
3,099;73812
3,101;73814
3,103;73818
3,105;73818
3,107;73818
3,109;73837
3,111;73830
3,113;73811
3,115;73834
3,117;73834
3,119;73815
3,121;73824
3,123;73814
3,125;73824
3,127;73824
3,129;73817
3,131;73816
3,133;73822
3,135;73824
3,137;73824
3,139;73828
3,141;73821
3,143;73829
3,145;73823
3,147;73823
3,149;73837
3,151;73836
3,153;73847
3,155;73847
3,157;73854
3,159;73841
3,161;73848
3,163;73857
3,165;73857
3,167;73844
3,169;73835
3,171;73822
3,173;73849
3,175;73849
3,177;73843
3,179;73867
3,181;73836
3,183;73843
3,185;73843
3,187;73851
3,189;73856
3,191;73851
3,193;73852
3,195;73852
3,197;73845
3,199;73854
3,201;73836
3,203;73848
3,205;73848
3,207;73863
3,209;73865
3,211;73853
3,213;73857
3,215;73857
3,217;73862
3,219;73862
3,221;73864
3,223;73861
3,225;73861
3,227;73855
3,229;73844
3,231;73867
3,233;73862
3,235;73862
3,237;73865
3,239;73860
3,241;73872
3,243;73872
3,245;73862
3,247;73856
3,249;73869
3,251;73878
3,253;73878
3,255;73875
3,257;73867
3,259;73871
3,261;73873
3,263;73873
3,265;73875
3,267;73892
3,269;73880
3,271;73889
3,273;73889
3,275;73886
3,277;73888
3,279;73875
3,281;73880
3,283;73880
3,285;73897
3,287;73895
3,289;73873
3,291;73893
3,293;73893
3,295;73888
3,297;73896
3,299;73896
3,301;73900
3,303;73900
3,305;73890
3,307;73897
3,309;73885
3,311;73898
3,313;73898
3,315;73896
3,317;73899
3,319;73920
3,321;73907
3,323;73907
3,325;73911
3,327;73907
3,329;73918
3,331;73918
3,333;73912
3,335;73911
3,337;73928
3,339;73907
3,341;73907
3,343;73900
3,345;73913
3,347;73910
3,349;73912
3,351;73912
3,353;73920
3,355;73919
3,357;73924
3,359;73929
3,361;73929
3,363;73923
3,365;73930
3,367;73914
3,369;73932
3,371;73932
3,373;73935
3,375;73927
3,377;73917
3,379;73925
3,381;73925
3,383;73923
3,385;73922
3,387;73879
3,389;73896
3,391;73896
3,393;73903
3,395;73895
3,397;73887
3,399;73877
3,401;73877
3,403;73854
3,405;73861
3,407;73851
3,409;73823
3,411;73823
3,413;73815
3,415;73798
3,417;73801
3,419;73801
3,421;73757
3,423;73759
3,425;73752
3,427;73736
3,429;73736
3,431;73727
3,433;73697
3,435;73686
3,437;73686
3,439;73686
3,441;73668
3,443;73680
3,445;73668
3,447;73658
3,449;73658
3,451;73651
3,453;73646
3,455;73634
3,457;73645
3,459;73645
3,461;73629
3,463;73657
3,465;73627
3,467;73633
3,469;73633
3,471;73634
3,473;73622
3,475;73623
3,477;73617
3,479;73617
3,481;73631
3,483;73628
3,485;73622
3,487;73626
3,489;73626
3,491;73636
3,493;73624
3,495;73641
3,497;73629
3,499;73629
3,501;73620
3,503;73634
3,505;73639
3,507;73639
3,509;73626
3,511;73615
3,513;73621
3,515;73633
3,517;73633
3,519;73632
3,521;73635
3,523;73644
3,525;73639
3,527;73639
3,529;73639
3,531;73629
3,533;73633
3,535;73645
3,537;73645
3,539;73644
3,541;73645
3,543;73645
3,545;73654
3,547;73654
3,549;73655
3,551;73649
3,553;73656
3,555;73644
3,557;73644
3,559;73671
3,561;73659
3,563;73652
3,565;73653
3,567;73653
3,569;73661
3,571;73645
3,573;73651
3,575;73662
3,577;73662
3,579;73658
3,581;73657
3,583;73659
3,585;73668
3,587;73668
3,589;73655
3,591;73666
3,593;73663
3,595;73663
3,597;73664
3,599;73658
3,601;73666
3,603;73671
3,605;73671
3,607;73646
3,609;73667
3,611;73652
3,613;73649
3,615;73649
3,617;73684
3,619;73660
3,621;73651
3,623;73660
3,625;73660
3,627;73663
3,629;73685
3,631;73655
3,633;73672
3,635;73672
3,637;73667
3,639;73669
3,641;73670
3,643;73682
3,645;73682
3,647;73686
3,649;73670
3,651;73665
3,653;73678
3,655;73678
3,657;73695
3,659;73690
3,661;73685
3,663;73683
3,665;73683
3,667;73690
3,669;73695
3,671;73696
3,673;73688
3,675;73688
3,677;73685
3,679;73695
3,681;73693
3,683;73693
3,685;73701
3,687;73688
3,689;73694
3,691;73702
3,693;73702
3,695;73686
3,697;73690
3,699;73682
3,701;73684
3,703;73684
3,705;73695
3,707;73695
3,709;73685
3,711;73683
3,713;73683
3,715;73692
3,717;73699
3,719;73680
3,721;73694
3,723;73694
3,725;73689
3,727;73697
3,729;73686
3,731;73695
3,733;73695
3,735;73704
3,737;73687
3,739;73689
3,741;73690
3,743;73690
3,745;73693
3,747;73690
3,749;73689
3,751;73690
3,753;73690
3,755;73690
3,757;73688
3,759;73706
3,761;73698
3,763;73698
3,765;73693
3,767;73688
3,769;73711
3,771;73711
3,773;73706
3,775;73690
3,777;73706
3,779;73697
3,781;73697
3,783;73706
3,785;73700
3,787;73718
3,789;73704
3,791;73704
3,793;73700
3,795;73712
3,797;73711
3,799;73714
3,801;73714
3,803;73713
3,805;73698
3,807;73708
3,809;73709
3,811;73709
3,813;73703
3,815;73726
3,817;73715
3,819;73731
3,821;73731
3,823;73727
3,825;73731
3,827;73727
3,829;73722
3,831;73722
3,833;73722
3,835;73731
3,837;73726
3,839;73734
3,841;73734
3,843;73731
3,845;73729
3,847;73740
3,849;73739
3,851;73739
3,853;73751
3,855;73743
3,857;73747
3,859;73747
3,861;73749
3,863;73746
3,865;73762
3,867;73764
3,869;73764
3,871;73756
3,873;73761
3,875;73755
3,877;73761
3,879;73761
3,881;73760
3,883;73754
3,885;73753
3,887;73772
3,889;73772
3,891;73765
3,893;73766
3,895;73761
3,897;73767
3,899;73767
3,901;73758
3,903;73764
3,905;73765
3,907;73767
3,909;73767
3,911;73771
3,913;73783
3,915;73775
3,917;73777
3,919;73777
3,921;73797
3,923;73781
3,925;73778
3,927;73771
3,929;73771
3,931;73788
3,933;73777
3,935;73781
3,937;73780
3,939;73780
3,941;73783
3,943;73783
3,945;73781
3,947;73781
3,949;73785
3,951;73782
3,953;73795
3,955;73802
3,957;73802
3,959;73795
3,961;73797
3,963;73782
3,965;73793
3,967;73793
3,969;73800
3,971;73787
3,973;73786
3,975;73801
3,977;73801
3,979;73801
3,981;73799
3,983;73797
3,985;73817
3,987;73817
3,989;73797
3,991;73803
3,993;73791
3,995;73800
3,997;73800
3,999;73812
4,001;73804
4,003;73794
4,005;73803
4,007;73803
4,009;73810
4,011;73809
4,013;73815
4,015;73797
4,017;73797
4,019;73817
4,021;73808
4,023;73813
4,025;73814
4,027;73814
4,029;73818
4,031;73812
4,033;73819
4,035;73813
4,037;73813
4,039;73818
4,041;73815
4,043;73817
4,045;73817
4,047;73820
4,049;73824
4,051;73806
4,053;73825
4,055;73825
4,057;73809
4,059;73816
4,061;73821
4,063;73830
4,065;73830
4,067;73836
4,069;73831
4,071;73828
4,073;73833
4,075;73833
4,077;73828
4,079;73853
4,081;73817
4,083;73842
4,085;73842
4,087;73847
4,089;73839
4,091;73834
4,093;73835
4,095;73835
4,097;73836
4,099;73837
4,101;73837
4,103;73846
4,105;73846
4,107;73846
4,109;73846
4,111;73848
4,113;73839
4,115;73839
4,117;73838
4,119;73845
4,121;73851
4,123;73854
4,125;73854
4,127;73851
4,129;73835
4,131;73851
4,133;73851
4,135;73860
4,137;73845
4,139;73854
4,141;73863
4,143;73863
4,145;73860
4,147;73857
4,149;73844
4,151;73859
4,153;73859
4,155;73864
4,157;73863
4,159;73858
4,161;73862
4,163;73862
4,165;73870
4,167;73870
4,169;73868
4,171;73873
4,173;73873
4,175;73879
4,177;73878
4,179;73864
4,181;73888
4,183;73888
4,185;73879
4,187;73885
4,189;73879
4,191;73889
4,193;73889
4,195;73893
4,197;73887
4,199;73881
4,201;73874
4,203;73874
4,205;73889
4,207;73875
4,209;73884
4,211;73865
4,213;73865
4,215;73854
4,217;73855
4,219;73854
4,221;73854
4,223;73841
4,225;73831
4,227;73815
4,229;73801
4,231;73801
4,233;73790
4,235;73764
4,237;73744
4,239;73740
4,241;73740
4,243;73730
4,245;73706
4,247;73688
4,249;73681
4,251;73681
4,253;73676
4,255;73669
4,257;73653
4,259;73659
4,261;73659
4,263;73617
4,265;73614
4,267;73608
4,269;73614
4,271;73614
4,273;73605
4,275;73590
4,277;73573
4,279;73574
4,281;73574
4,283;73582
4,285;73583
4,287;73580
4,289;73579
4,291;73579
4,293;73566
4,295;73570
4,297;73593
4,299;73577
4,301;73577
4,303;73578
4,305;73572
4,307;73579
4,309;73579
4,311;73583
4,313;73577
4,315;73563
4,317;73585
4,319;73585
4,321;73566
4,323;73571
4,325;73576
4,327;73572
4,329;73572
4,331;73577
4,333;73567
4,335;73570
4,337;73572
4,339;73572
4,341;73568
4,343;73583
4,345;73583
4,347;73583
4,349;73583
4,351;73585
4,353;73588
4,355;73578
4,357;73601
4,359;73601
4,361;73608
4,363;73600
4,365;73599
4,367;73610
4,369;73610
4,371;73618
4,373;73608
4,375;73601
4,377;73613
4,379;73613
4,381;73608
4,383;73608
4,385;73613
4,387;73615
4,389;73615
4,391;73608
4,393;73619
4,395;73624
4,397;73624
4,399;73611
4,401;73620
4,403;73619
4,405;73638
4,407;73638
4,409;73630
4,411;73619
4,413;73623
4,415;73633
4,417;73633
4,419;73618
4,421;73623
4,423;73621
4,425;73630
4,427;73630
4,429;73632
4,431;73645
4,433;73616
4,435;73636
4,437;73636
4,439;73632
4,441;73643
4,443;73634
4,445;73641
4,447;73641
4,449;73632
4,451;73646
4,453;73630
4,455;73663
4,457;73663
4,459;73645
4,461;73639
4,463;73648
4,465;73659
4,467;73659
4,469;73651
4,471;73640
4,473;73661
4,475;73659
4,477;73659
4,479;73663
4,481;73661
4,483;73667
4,485;73667
4,487;73664
4,489;73657
4,491;73659
4,493;73659
4,495;73659
4,497;73658
4,499;73658
4,501;73655
4,503;73659
4,505;73659
4,507;73665
4,509;73659
4,511;73655
4,513;73659
4,515;73659
4,517;73651
4,519;73656
4,521;73656
4,523;73656
4,525;73656
4,527;73647
4,529;73685
4,531;73648
4,533;73660
4,535;73660
4,537;73666
4,539;73661
4,541;73659
4,543;73660
4,545;73660
4,547;73668
4,549;73656
4,551;73650
4,553;73648
4,555;73648
4,557;73661
4,559;73669
4,561;73676
4,563;73667
4,565;73667
4,567;73665
4,569;73656
4,571;73666
4,573;73666
4,575;73672
4,577;73668
4,579;73673
4,581;73671
4,583;73671
4,585;73670
4,587;73669
4,589;73665
4,591;73675
4,593;73675
4,595;73672
4,597;73672
4,599;73662
4,601;73678
4,603;73678
4,605;73670
4,607;73677
4,609;73669
4,611;73666
4,613;73666
4,615;73673
4,617;73677
4,619;73669
4,621;73682
4,623;73682
4,625;73681
4,627;73686
4,629;73676
4,631;73695
4,633;73695
4,635;73693
4,637;73685
4,639;73675
4,641;73696
4,643;73696
4,645;73695
4,647;73695
4,649;73692
4,651;73701
4,653;73701
4,655;73692
4,657;73687
4,659;73704
4,661;73704
4,663;73716
4,665;73701
4,667;73707
4,669;73711
4,671;73711
4,673;73711
4,675;73707
4,677;73714
4,679;73726
4,681;73726
4,683;73723
4,685;73717
4,687;73722
4,689;73721
4,691;73721
4,693;73726
4,695;73718
4,697;73724
4,699;73737
4,701;73737
4,703;73730
4,705;73733
4,707;73711
4,709;73724
4,711;73724
4,713;73710
4,715;73736
4,717;73723
4,719;73726
4,721;73726
4,723;73731
4,725;73730
4,727;73713
4,729;73732
4,731;73732
4,733;73739
4,735;73735
4,737;73738
4,739;73713
4,741;73713
4,743;73733
4,745;73743
4,747;73737
4,749;73734
4,751;73734
4,753;73729
4,755;73732
4,757;73750
4,759;73750
4,761;73726
4,763;73741
4,765;73738
4,767;73744
4,769;73744
4,771;73748
4,773;73757
4,775;73744
4,777;73751
4,779;73751
4,781;73749
4,783;73764
4,785;73746
4,787;73750
4,789;73750
4,791;73747
4,793;73760
4,795;73757
4,797;73757
4,799;73757
4,801;73749
4,803;73749
4,805;73761
4,807;73762
4,809;73762
4,811;73760
4,813;73752
4,815;73762
4,817;73775
4,819;73775
4,821;73782
4,823;73778
4,825;73769
4,827;73761
4,829;73761
4,831;73765
4,833;73757
4,835;73776
4,837;73769
4,839;73769
4,841;73769
4,843;73766
4,845;73771
4,847;73771
4,849;73785
4,851;73790
4,853;73776
4,855;73789
4,857;73789
4,859;73783
4,861;73782
4,863;73774
4,865;73777
4,867;73777
4,869;73778
4,871;73772
4,873;73775
4,875;73774
4,877;73774
4,879;73778
4,881;73788
4,883;73782
4,885;73789
4,887;73789
4,889;73787
4,891;73793
4,893;73772
4,895;73800
4,897;73800
4,899;73793
4,901;73793
4,903;73782
4,905;73793
4,907;73793
4,909;73801
4,911;73804
4,913;73792
4,915;73804
4,917;73804
4,919;73813
4,921;73799
4,923;73795
4,925;73809
4,927;73809
4,929;73799
4,931;73807
4,933;73804
4,935;73804
4,937;73793
4,939;73818
4,941;73788
4,943;73807
4,945;73807
4,947;73809
4,949;73806
4,951;73808
4,953;73806
4,955;73806
4,957;73797
4,959;73813
4,961;73810
4,963;73814
4,965;73814
4,967;73821
4,969;73811
4,971;73807
4,973;73818
4,975;73818
4,977;73818
4,979;73826
4,981;73811
4,983;73833
4,985;73833
4,987;73815
4,989;73824
4,991;73818
4,993;73823
4,995;73823
4,997;73826
4,999;73829
5,001;73827
5,003;73823
5,005;73823
5,007;73829
5,009;73834
5,011;73839
5,013;73831
5,015;73831
5,017;73829
5,019;73834
5,021;73846
5,023;73846
5,025;73836
5,027;73843
5,029;73828
5,031;73858
5,033;73858
5,035;73841
5,037;73821
5,039;73837
5,041;73844
5,043;73844
5,045;73839
5,047;73837
5,049;73840
5,051;73848
5,053;73848
5,055;73844
5,057;73847
5,059;73837
5,061;73842
5,063;73842
5,065;73845
5,067;73851
5,069;73835
5,071;73837
5,073;73837
5,075;73836
5,077;73826
5,079;73795
5,081;73795
5,083;73795
5,085;73782
5,087;73786
5,089;73766
5,091;73748
5,093;73748
5,095;73739
5,097;73723
5,099;73718
5,101;73698
5,103;73698
5,105;73676
5,107;73668
5,109;73680
5,111;73654
5,113;73654
5,115;73641
5,117;73631
5,119;73627
5,121;73627
5,123;73620
5,125;73611
5,127;73598
5,129;73600
5,131;73600
5,133;73590
5,135;73586
5,137;73582
5,139;73578
5,141;73578
5,143;73572
5,145;73567
5,147;73559
5,149;73563
5,151;73563
5,153;73549
5,155;73555
5,157;73553
5,159;73561
5,161;73561
5,163;73543
5,165;73559
5,167;73549
5,169;73555
5,171;73555
5,173;73551
5,175;73548
5,177;73542
5,179;73563
5,181;73563
5,183;73544
5,185;73561
5,187;73563
5,189;73567
5,191;73567
5,193;73559
5,195;73558
5,197;73579
5,199;73567
5,201;73567
5,203;73575
5,205;73576
5,207;73577
5,209;73577
5,211;73578
5,213;73590
5,215;73593
5,217;73603
5,219;73603
5,221;73595
5,223;73594
5,225;73595
5,227;73595
5,229;73595
5,231;73593
5,233;73602
5,235;73599
5,237;73594
5,239;73594
5,241;73607
5,243;73606
5,245;73605
5,247;73606
5,249;73606
5,251;73620
5,253;73621
5,255;73592
5,257;73616
5,259;73616
5,261;73607
5,263;73626
5,265;73597
5,267;73612
5,269;73612
5,271;73652
5,273;73631
5,275;73624
5,277;73625
5,279;73625
5,281;73613
5,283;73627
5,285;73640
5,287;73629
5,289;73629
5,291;73633
5,293;73624
5,295;73635
5,297;73635
5,299;73631
5,301;73627
5,303;73647
5,305;73639
5,307;73639
5,309;73643
5,311;73645
5,313;73634
5,315;73641
5,317;73641
5,319;73645
5,321;73629
5,323;73644
5,325;73654
5,327;73654
5,329;73653
5,331;73649
5,333;73641
5,335;73640
5,337;73640
5,339;73647
5,341;73649
5,343;73650
5,345;73652
5,347;73652
5,349;73650
5,351;73648
5,353;73637
5,355;73649
5,357;73649
5,359;73655
5,361;73629
5,363;73639
5,365;73651
5,367;73651
5,369;73660
5,371;73656
5,373;73653
5,375;73645
5,377;73645
5,379;73658
5,381;73644
5,383;73647
5,385;73647
5,387;73650
5,389;73654
5,391;73641
5,393;73654
5,395;73654
5,397;73645
5,399;73645
5,401;73645
5,403;73650
5,405;73650
5,407;73653
5,409;73656
5,411;73640
5,413;73649
5,415;73649
5,417;73640
5,419;73645
5,421;73656
5,423;73648
5,425;73648
5,427;73646
5,429;73675
5,431;73639
5,433;73645
5,435;73645
5,437;73648
5,439;73659
5,441;73643
5,443;73639
5,445;73639
5,447;73643
5,449;73643
5,451;73646
5,453;73635
5,455;73635
5,457;73642
5,459;73655
5,461;73652
5,463;73648
5,465;73648
5,467;73641
5,469;73652
5,471;73660
5,473;73660
5,475;73659
5,477;73656
5,479;73663
5,481;73673
5,483;73673
5,485;73657
5,487;73671
5,489;73665
5,491;73678
5,493;73678
5,495;73679
5,497;73676
5,499;73671
5,501;73679
5,503;73679
5,505;73686
5,507;73683
5,509;73678
5,511;73681
5,513;73681
5,515;73686
5,517;73683
5,519;73675
5,521;73687
5,523;73687
5,525;73684
5,527;73695
5,529;73677
5,531;73690
5,533;73690
5,535;73689
5,537;73694
5,539;73693
5,541;73691
5,543;73691
5,545;73702
5,547;73702
5,549;73699
5,551;73700
5,553;73700
5,555;73698
5,557;73697
5,559;73707
5,561;73707
5,563;73713
5,565;73709
5,567;73698
5,569;73714
5,571;73714
5,573;73706
5,575;73709
5,577;73710
5,579;73707
5,581;73707
5,583;73714
5,585;73710
5,587;73718
5,589;73725
5,591;73725
5,593;73712
5,595;73720
5,597;73713
5,599;73713
5,601;73713
5,603;73721
5,605;73725
5,607;73712
5,609;73731
5,611;73731
5,613;73698
5,615;73714
5,617;73719
5,619;73709
5,621;73709
5,623;73716
5,625;73713
5,627;73719
5,629;73714
5,631;73714
5,633;73732
5,635;73728
5,637;73733
5,639;73723
5,641;73723
5,643;73728
5,645;73722
5,647;73732
5,649;73734
5,651;73734
5,653;73724
5,655;73718
5,657;73738
5,659;73738
5,661;73725
5,663;73726
5,665;73733
5,667;73746
5,669;73746
5,671;73734
5,673;73745
5,675;73726
5,677;73747
5,679;73747
5,681;73734
5,683;73732
5,685;73737
5,687;73736
5,689;73736
5,691;73742
5,693;73743
5,695;73737
5,697;73749
5,699;73749
5,701;73742
5,703;73746
5,705;73729
5,707;73750
5,709;73750
5,711;73750
5,713;73748
5,715;73751
5,717;73749
5,719;73749
5,721;73775
5,723;73747
5,725;73757
5,727;73747
5,729;73747
5,731;73750
5,733;73758
5,735;73762
5,737;73754
5,739;73754
5,741;73745
5,743;73757
5,745;73772
5,747;73772
5,749;73748
5,751;73753
5,753;73758
5,755;73762
5,757;73762
5,759;73764
5,761;73754
5,763;73751
5,765;73763
5,767;73763
5,769;73780
5,771;73754
5,773;73753
5,775;73770
5,777;73770
5,779;73764
5,781;73767
5,783;73761
5,785;73763
5,787;73763
5,789;73777
5,791;73762
5,793;73767
5,795;73775
5,797;73775
5,799;73770
5,801;73780
5,803;73763
5,805;73777
5,807;73777
5,809;73779
5,811;73776
5,813;73783
5,815;73783
5,817;73783
5,819;73779
5,821;73778
5,823;73795
5,825;73785
5,827;73785
5,829;73772
5,831;73780
5,833;73790
5,835;73790
5,837;73786
5,839;73788
5,841;73793
5,843;73795
5,845;73795
5,847;73784
5,849;73784
5,851;73780
5,853;73801
5,855;73801
5,857;73789
5,859;73790
5,861;73802
5,863;73796
5,865;73796
5,867;73796
5,869;73801
5,871;73784
5,873;73795
5,875;73795
5,877;73810
5,879;73819
5,881;73793
5,883;73809
5,885;73809
5,887;73798
5,889;73797
5,891;73788
5,893;73798
5,895;73798
5,897;73787
5,899;73780
5,901;73770
5,903;73760
5,905;73760
5,907;73754
5,909;73738
5,911;73739
5,913;73724
5,915;73724
5,917;73711
5,919;73713
5,921;73699
5,923;73699
5,925;73675
5,927;73673
5,929;73654
5,931;73657
5,933;73657
5,935;73645
5,937;73624
5,939;73621
5,941;73608
5,943;73608
5,945;73591
5,947;73586
5,949;73565
5,951;73576
5,953;73576
5,955;73576
5,957;73551
5,959;73551
5,961;73554
5,963;73554
5,965;73541
5,967;73543
5,969;73536
5,971;73541
5,973;73541
5,975;73530
5,977;73531
5,979;73521
5,981;73528
5,983;73528
5,985;73541
5,987;73538
5,989;73530
5,991;73532
5,993;73532
5,995;73523
5,997;73543
5,999;73541
6,001;73532
6,003;73532
6,005;73537
6,007;73531
6,009;73550
6,011;73550
6,013;73541
6,015;73535
6,017;73542
6,019;73549
6,021;73549
6,023;73541
6,025;73543
6,027;73535
6,029;73558
6,031;73558
6,033;73557
6,035;73571
6,037;73547
6,039;73558
6,041;73558
6,043;73557
6,045;73554
6,047;73567
6,049;73561
6,051;73561
6,053;73565
6,055;73573
6,057;73563
6,059;73569
6,061;73569
6,063;73549
6,065;73576
6,067;73566
6,069;73585
6,071;73585
6,073;73581
6,075;73581
6,077;73582
6,079;73590
6,081;73590
6,083;73585
6,085;73589
6,087;73598
6,089;73609
6,091;73609
6,093;73593
6,095;73605
6,097;73606
6,099;73606
6,101;73602
6,103;73597
6,105;73587
6,107;73605
6,109;73605
6,111;73597
6,113;73595
6,115;73599
6,117;73612
6,119;73612
6,121;73608
6,123;73597
6,125;73597
6,127;73607
6,129;73607
6,131;73609
6,133;73610
6,135;73601
6,137;73622
6,139;73622
6,141;73619
6,143;73612
6,145;73607
6,147;73611
6,149;73611
6,151;73614
6,153;73619
6,155;73612
6,157;73615
6,159;73615
6,161;73616
6,163;73621
6,165;73615
6,167;73621
6,169;73621
6,171;73649
6,173;73636
6,175;73647
6,177;73639
6,179;73639
6,181;73635
6,183;73634
6,185;73633
6,187;73633
6,189;73630
6,191;73630
6,193;73632
6,195;73639
6,197;73639
6,199;73640
6,201;73625
6,203;73637
6,205;73638
6,207;73638
6,209;73628
6,211;73637
6,213;73617
6,215;73639
6,217;73639
6,219;73639
6,221;73627
6,223;73635
6,225;73634
6,227;73634
6,229;73639
6,231;73633
6,233;73623
6,235;73634
6,237;73634
6,239;73645
6,241;73634
6,243;73635
6,245;73651
6,247;73651
6,249;73639
6,251;73646
6,253;73629
6,255;73638
6,257;73638
6,259;73637
6,261;73633
6,263;73642
6,265;73639
6,267;73639
6,269;73634
6,271;73630
6,273;73643
6,275;73643
6,277;73628
6,279;73644
6,281;73629
6,283;73639
6,285;73639
6,287;73656
6,289;73645
6,291;73634
6,293;73651
6,295;73651
6,297;73644
6,299;73640
6,301;73646
6,303;73652
6,305;73652
6,307;73649
6,309;73652
6,311;73640
6,313;73655
6,315;73655
6,317;73650
6,319;73651
6,321;73647
6,323;73653
6,325;73653
6,327;73663
6,329;73669
6,331;73660
6,333;73665
6,335;73665
6,337;73673
6,339;73673
6,341;73675
6,343;73669
6,345;73669
6,347;73671
6,349;73673
6,351;73665
6,353;73646
6,355;73646
6,357;73688
6,359;73670
6,361;73681
6,363;73681
6,365;73672
6,367;73666
6,369;73682
6,371;73684
6,373;73684
6,375;73691
6,377;73688
6,379;73682
6,381;73689
6,383;73689
6,385;73695
6,387;73698
6,389;73699
6,391;73699
6,393;73699
6,395;73689
6,397;73696
6,399;73681
6,401;73697
6,403;73697
6,405;73699
6,407;73705
6,409;73687
6,411;73703
6,413;73703
6,415;73695
6,417;73696
6,419;73705
6,421;73704
6,423;73704
6,425;73698
6,427;73716
6,429;73693
6,431;73712
6,433;73712
6,435;73705
6,437;73722
6,439;73712
6,441;73708
6,443;73708
6,445;73707
6,447;73710
6,449;73722
6,451;73722
6,453;73706
6,455;73709
6,457;73710
6,459;73720
6,461;73720
6,463;73736
6,465;73703
6,467;73716
6,469;73719
6,471;73719
6,473;73726
6,475;73713
6,477;73718
6,479;73727
6,481;73727
6,483;73721
6,485;73725
6,487;73709
6,489;73731
6,491;73731
6,493;73723
6,495;73723
6,497;73719
6,499;73741
6,501;73741
6,503;73734
6,505;73740
6,507;73731
6,509;73751
6,511;73751
6,513;73730
6,515;73747
6,517;73737
6,519;73743
6,521;73743
6,523;73743
6,525;73743
6,527;73755
6,529;73744
6,531;73744
6,533;73742
6,535;73743
6,537;73753
6,539;73753
6,541;73748
6,543;73748
6,545;73748
6,547;73758
6,549;73758
6,551;73744
6,553;73744
6,555;73746
6,557;73749
6,559;73749
6,561;73757
6,563;73739
6,565;73743
6,567;73755
6,569;73755
6,571;73763
6,573;73760
6,575;73751
6,577;73760
6,579;73760
6,581;73753
6,583;73759
6,585;73755
6,587;73766
6,589;73766
6,591;73765
6,593;73766
6,595;73762
6,597;73768
6,599;73768
6,601;73752
6,603;73764
6,605;73773
6,607;73763
6,609;73763
6,611;73770
6,613;73772
6,615;73786
6,617;73775
6,619;73775
6,621;73790
6,623;73781
6,625;73787
6,627;73787
6,629;73792
6,631;73771
6,633;73779
6,635;73788
6,637;73788
6,639;73779
6,641;73777
6,643;73773
6,645;73773
6,647;73773
6,649;73781
6,651;73793
6,653;73789
6,655;73795
6,657;73795
6,659;73783
6,661;73791
6,663;73791
6,665;73802
6,667;73802
6,669;73786
6,671;73794
6,673;73784
6,675;73797
6,677;73797
6,679;73795
6,681;73792
6,683;73793
6,685;73804
6,687;73804
6,689;73795
6,691;73803
6,693;73797
6,695;73802
6,697;73802
6,699;73815
6,701;73810
6,703;73821
6,705;73812
6,707;73812
6,709;73799
6,711;73815
6,713;73806
6,715;73813
6,717;73813
6,719;73804
6,721;73814
6,723;73831
6,725;73831
6,727;73828
6,729;73818
6,731;73826
6,733;73815
6,735;73815
6,737;73816
6,739;73804
6,741;73806
6,743;73783
6,745;73783
6,747;73788
6,749;73771
6,751;73755
6,753;73768
6,755;73768
6,757;73751
6,759;73717
6,761;73705
6,763;73702
6,765;73702
6,767;73687
6,769;73682
6,771;73655
6,773;73661
6,775;73661
6,777;73639
6,779;73625
6,781;73613
6,783;73603
6,785;73603
6,787;73592
6,789;73589
6,791;73588
6,793;73569
6,795;73569
6,797;73564
6,799;73560
6,801;73562
6,803;73535
6,805;73535
6,807;73542
6,809;73543
6,811;73549
6,813;73549
6,815;73528
6,817;73540
6,819;73511
6,821;73528
6,823;73528
6,825;73531
6,827;73522
6,829;73522
6,831;73514
6,833;73514
6,835;73515
6,837;73539
6,839;73516
6,841;73514
6,843;73514
6,845;73515
6,847;73522
6,849;73512
6,851;73524
6,853;73524
6,855;73521
6,857;73518
6,859;73520
6,861;73525
6,863;73525
6,865;73528
6,867;73537
6,869;73534
6,871;73543
6,873;73543
6,875;73543
6,877;73548
6,879;73541
6,881;73543
6,883;73543
6,885;73556
6,887;73550
6,889;73555
6,891;73554
6,893;73554
6,895;73552
6,897;73557
6,899;73563
6,901;73563
6,903;73561
6,905;73552
6,907;73571
6,909;73568
6,911;73568
6,913;73582
6,915;73559
6,917;73565
6,919;73578
6,921;73578
6,923;73564
6,925;73570
6,927;73558
6,929;73568
6,931;73568
6,933;73569
6,935;73565
6,937;73549
6,939;73579
6,941;73579
6,943;73557
6,945;73560
6,947;73565
6,949;73573
6,951;73573
6,953;73570
6,955;73551
6,957;73565
6,959;73570
6,961;73570
6,963;73549
6,965;73577
6,967;73558
6,969;73572
6,971;73572
6,973;73578
6,975;73574
6,977;73584
6,979;73583
6,981;73583
6,983;73583
6,985;73573
6,987;73579
6,989;73579
6,991;73585
6,993;73583
6,995;73583
6,997;73583
6,999;73583
7,001;73584
7,003;73593
7,005;73585
7,007;73594
7,009;73594
7,011;73586
7,013;73588
7,015;73583
7,017;73599
7,019;73599
7,021;73591
7,023;73587
7,025;73585
7,027;73593
7,029;73593
7,031;73597
7,033;73604
7,035;73582
7,037;73585
7,039;73585
7,041;73594
7,043;73588
7,045;73599
7,047;73592
7,049;73592
7,051;73600
7,053;73589
7,055;73588
7,057;73585
7,059;73585
7,061;73590
7,063;73597
7,065;73606
7,067;73600
7,069;73600
7,071;73616
7,073;73602
7,075;73621
7,077;73621
7,079;73609
7,081;73605
7,083;73596
7,085;73620
7,087;73620
7,089;73599
7,091;73606
7,093;73599
7,095;73589
7,097;73589
7,099;73611
7,101;73609
7,103;73608
7,105;73608
7,107;73608
7,109;73605
7,111;73603
7,113;73600
7,115;73604
7,117;73604
7,119;73590
7,121;73601
7,123;73598
7,125;73606
7,127;73606
7,129;73589
7,131;73607
7,133;73598
7,135;73607
7,137;73607
7,139;73605
7,141;73603
7,143;73596
7,145;73607
7,147;73607
7,149;73595
7,151;73601
7,153;73610
7,155;73605
7,157;73605
7,159;73590
7,161;73609
7,163;73616
7,165;73610
7,167;73610
7,169;73605
7,171;73603
7,173;73620
7,175;73620
7,177;73619
7,179;73616
7,181;73614
7,183;73614
7,185;73614
7,187;73607
7,189;73612
7,191;73606
7,193;73620
7,195;73620
7,197;73609
7,199;73614
7,201;73612
7,203;73636
7,205;73636
7,207;73622
7,209;73607
7,211;73612
7,213;73607
7,215;73607
7,217;73611
7,219;73611
7,221;73606
7,223;73615
7,225;73615
7,227;73613
7,229;73632
7,231;73622
7,233;73622
7,235;73622
7,237;73617
7,239;73622
7,241;73619
7,243;73626
7,245;73626
7,247;73628
7,249;73630
7,251;73631
7,253;73604
7,255;73604
7,257;73618
7,259;73628
7,261;73628
7,263;73628
7,265;73634
7,267;73638
7,269;73633
7,271;73633
7,273;73633
7,275;73644
7,277;73638
7,279;73642
7,281;73659
7,283;73659
7,285;73644
7,287;73643
7,289;73635
7,291;73647
7,293;73647
7,295;73644
7,297;73643
7,299;73648
7,301;73640
7,303;73640
7,305;73645
7,307;73651
7,309;73640
7,311;73660
7,313;73660
7,315;73654
7,317;73655
7,319;73646
7,321;73646
7,323;73646
7,325;73655
7,327;73657
7,329;73656
7,331;73656
7,333;73656
7,335;73660
7,337;73657
7,339;73676
7,341;73665
7,343;73665
7,345;73661
7,347;73657
7,349;73660
7,351;73660
7,353;73664
7,355;73652
7,357;73662
7,359;73657
7,361;73657
7,363;73672
7,365;73658
7,367;73653
7,369;73657
7,371;73657
7,373;73659
7,375;73679
7,377;73660
7,379;73675
7,381;73675
7,383;73671
7,385;73678
7,387;73660
7,389;73678
7,391;73678
7,393;73671
7,395;73665
7,397;73668
7,399;73667
7,401;73667
7,403;73681
7,405;73674
7,407;73671
7,409;73683
7,411;73683
7,413;73673
7,415;73684
7,417;73681
7,419;73676
7,421;73676
7,423;73685
7,425;73686
7,427;73701
7,429;73675
7,431;73675
7,433;73690
7,435;73681
7,437;73702
7,439;73702
7,441;73690
7,443;73678
7,445;73702
7,447;73683
7,449;73683
7,451;73682
7,453;73678
7,455;73673
7,457;73684
7,459;73684
7,461;73690
7,463;73685
7,465;73682
7,467;73684
7,469;73684
7,471;73684
7,473;73686
7,475;73693
7,477;73692
7,479;73692
7,481;73694
7,483;73692
7,485;73689
7,487;73697
7,489;73697
7,491;73689
7,493;73710
7,495;73698
7,497;73702
7,499;73702
7,501;73705
7,503;73707
7,505;73705
7,507;73702
7,509;73702
7,511;73711
7,513;73710
7,515;73714
7,517;73711
7,519;73711
7,521;73720
7,523;73715
7,525;73716
7,527;73716
7,529;73712
7,531;73712
7,533;73714
7,535;73722
7,537;73722
7,539;73723
7,541;73725
7,543;73717
7,545;73697
7,547;73697
7,549;73712
7,551;73728
7,553;73715
7,555;73733
7,557;73733
7,559;73720
7,561;73737
7,563;73723
7,565;73730
7,567;73730
7,569;73735
7,571;73744
7,573;73729
7,575;73749
7,577;73749
7,579;73736
7,581;73745
7,583;73737
7,585;73747
7,587;73747
7,589;73748
7,591;73745
7,593;73725
7,595;73725
7,597;73725
7,599;73724
7,601;73708
7,603;73712
7,605;73692
7,607;73692
7,609;73683
7,611;73676
7,613;73666
7,615;73666
7,617;73648
7,619;73633
7,621;73621
7,623;73609
7,625;73609
7,627;73599
7,629;73591
7,631;73575
7,633;73562
7,635;73562
7,637;73548
7,639;73535
7,641;73529
7,643;73521
7,645;73521
7,647;73502
7,649;73496
7,651;73483
7,653;73509
7,655;73509
7,657;73490
7,659;73482
7,661;73468
7,663;73468
7,665;73468
7,667;73465
7,669;73465
7,671;73454
7,673;73460
7,675;73460
7,677;73445
7,679;73462
7,681;73458
7,683;73452
7,685;73452
7,687;73453
7,689;73450
7,691;73457
7,693;73445
7,695;73445
7,697;73441
7,699;73450
7,701;73465
7,703;73465
7,705;73452
7,707;73454
7,709;73449
7,711;73451
7,713;73451
7,715;73465
7,717;73453
7,719;73467
7,721;73465
7,723;73465
7,725;73456
7,727;73470
7,729;73464
7,731;73464
7,733;73464
7,735;73472
7,737;73468
7,739;73475
7,741;73487
7,743;73487
7,745;73483
7,747;73479
7,749;73475
7,751;73478
7,753;73478
7,755;73480
7,757;73496
7,759;73474
7,761;73484
7,763;73484
7,765;73495
7,767;73496
7,769;73490
7,771;73495
7,773;73495
7,775;73507
7,777;73508
7,779;73510
7,781;73520
7,783;73520
7,785;73515
7,787;73519
7,789;73531
7,791;73517
7,793;73517
7,795;73514
7,797;73522
7,799;73533
7,801;73533
7,803;73523
7,805;73530
7,807;73509
7,809;73530
7,811;73530
7,813;73559
7,815;73517
7,817;73528
7,819;73537
7,821;73537
7,823;73530
7,825;73538
7,827;73528
7,829;73547
7,831;73547
7,833;73532
7,835;73546
7,837;73537
7,839;73546
7,841;73546
7,843;73562
7,845;73553
7,847;73550
7,849;73538
7,851;73538
7,853;73555
7,855;73556
7,857;73543
7,859;73561
7,861;73561
7,863;73548
7,865;73559
7,867;73560
7,869;73561
7,871;73561
7,873;73556
7,875;73559
7,877;73573
7,879;73561
7,881;73561
7,883;73554
7,885;73554
7,887;73571
7,889;73571
7,891;73558
7,893;73561
7,895;73567
7,897;73573
7,899;73573
7,901;73555
7,903;73558
7,905;73553
7,907;73558
7,909;73558
7,911;73544
7,913;73545
7,915;73555
7,917;73555
7,919;73555
7,921;73560
7,923;73562
7,925;73552
7,927;73555
7,929;73555
7,931;73560
7,933;73556
7,935;73547
7,937;73560
7,939;73560
7,941;73559
7,943;73564
7,945;73566
7,947;73552
7,949;73552
7,951;73553
7,953;73544
7,955;73563
7,957;73560
7,959;73560
7,961;73549
7,963;73570
7,965;73561
7,967;73549
7,969;73549
7,971;73560
7,973;73557
7,975;73575
7,977;73575
7,979;73568
7,981;73570
7,983;73561
7,985;73573
7,987;73573
7,989;73564
7,991;73568
7,993;73568
7,995;73541
7,997;73541
7,999;73561
8,001;73573
8,003;73571
8,005;73573
8,007;73573
8,009;73569
8,011;73571
8,013;73562
8,015;73576
8,017;73576
8,019;73575
8,021;73572
8,023;73578
8,025;73586
8,027;73586
8,029;73586
8,031;73586
8,033;73579
8,035;73590
8,037;73590
8,039;73586
8,041;73596
8,043;73591
8,045;73598
8,047;73598
8,049;73591
8,051;73585
8,053;73588
8,055;73596
8,057;73596
8,059;73605
8,061;73606
8,063;73598
8,065;73598
8,067;73597
8,069;73603
8,071;73593
8,073;73606
8,075;73606
8,077;73613
8,079;73617
8,081;73601
8,083;73619
8,085;73619
8,087;73605
8,089;73618
8,091;73616
8,093;73618
8,095;73618
8,097;73623
8,099;73612
8,101;73617
8,103;73639
8,105;73639
8,107;73616
8,109;73628
8,111;73613
8,113;73627
8,115;73627
8,117;73631
8,119;73627
8,121;73626
8,123;73641
8,125;73641
8,127;73643
8,129;73633
8,131;73638
8,133;73636
8,135;73636
8,137;73631
8,139;73640
8,141;73646
8,143;73634
8,145;73634
8,147;73640
8,149;73631
8,151;73640
8,153;73640
8,155;73625
8,157;73629
8,159;73637
8,161;73642
8,163;73642
8,165;73629
8,167;73662
8,169;73650
8,171;73643
8,173;73643
8,175;73648
8,177;73675
8,179;73656
8,181;73671
8,183;73671
8,185;73666
8,187;73660
8,189;73664
8,191;73667
8,193;73667
8,195;73665
8,197;73663
8,199;73654
8,201;73664
8,203;73664
8,205;73666
8,207;73660
8,209;73671
8,211;73672
8,213;73672
8,215;73679
8,217;73686
8,219;73682
8,221;73685
8,223;73685
8,225;73689
8,227;73685
8,229;73676
8,231;73683
8,233;73683
8,235;73687
8,237;73690
8,239;73687
8,241;73687
8,243;73686
8,245;73693
8,247;73687
8,249;73694
8,251;73694
8,253;73678
8,255;73680
8,257;73675
8,259;73687
8,261;73687
8,263;73712
8,265;73689
8,267;73684
8,269;73679
8,271;73679
8,273;73690
8,275;73690
8,277;73700
8,279;73696
8,281;73696
8,283;73695
8,285;73706
8,287;73683
8,289;73704
8,291;73704
8,293;73699
8,295;73706
8,297;73697
8,299;73706
8,301;73706
8,303;73706
8,305;73716
8,307;73723
8,309;73706
8,311;73706
8,313;73719
8,315;73715
8,317;73724
8,319;73709
8,321;73709
8,323;73717
8,325;73718
8,327;73729
8,329;73729
8,331;73721
8,333;73728
8,335;73723
8,337;73724
8,339;73724
8,341;73716
8,343;73727
8,345;73728
8,347;73737
8,349;73737
8,351;73735
8,353;73737
8,355;73720
8,357;73739
8,359;73739
8,361;73743
8,363;73729
8,365;73734
8,367;73747
8,369;73747
8,371;73738
8,373;73742
8,375;73735
8,377;73747
8,379;73747
8,381;73737
8,383;73745
8,385;73734
8,387;73741
8,389;73741
8,391;73730
8,393;73735
8,395;73750
8,397;73713
8,399;73713
8,401;73717
8,403;73698
8,405;73690
8,407;73677
8,409;73677
8,411;73661
8,413;73663
8,415;73659
8,417;73659
8,419;73644
8,421;73636
8,423;73616
8,425;73612
8,427;73612
8,429;73605
8,431;73588
8,433;73577
8,435;73583
8,437;73583
8,439;73566
8,441;73555
8,443;73542
8,445;73522
8,447;73522
8,449;73529
8,451;73524
8,453;73513
8,455;73511
8,457;73511
8,459;73509
8,461;73505
8,463;73499
8,465;73500
8,467;73500
8,469;73504
8,471;73515
8,473;73484
8,475;73488
8,477;73488
8,479;73497
8,481;73498
8,483;73477
8,485;73487
8,487;73487
8,489;73499
8,491;73496
8,493;73482
8,495;73496
8,497;73496
8,499;73496
8,501;73495
8,503;73499
8,505;73499
8,507;73497
8,509;73505
8,511;73508
8,513;73501
8,515;73501
8,517;73500
8,519;73504
8,521;73506
8,523;73517
8,525;73517
8,527;73516
8,529;73520
8,531;73519
8,533;73534
8,535;73534
8,537;73517
8,539;73526
8,541;73531
8,543;73529
8,545;73529
8,547;73540
8,549;73531
8,551;73529
8,553;73554
8,555;73554
8,557;73538
8,559;73531
8,561;73541
8,563;73534
8,565;73534
8,567;73549
8,569;73540
8,571;73549
8,573;73552
8,575;73552
8,577;73538
8,579;73556
8,581;73561
8,583;73562
8,585;73562
8,587;73564
8,589;73563
8,591;73571
8,593;73558
8,595;73558
8,597;73552
8,599;73557
8,601;73572
8,603;73572
8,605;73567
8,607;73562
8,609;73572
8,611;73587
8,613;73587
8,615;73568
8,617;73574
8,619;73581
8,621;73588
8,623;73588
8,625;73577
8,627;73577
8,629;73582
8,631;73588
8,633;73588
8,635;73587
8,637;73592
8,639;73591
8,641;73609
8,643;73609
8,645;73599
8,647;73594
8,649;73591
8,651;73601
8,653;73601
8,655;73590
8,657;73594
8,659;73596
8,661;73602
8,663;73602
8,665;73593
8,667;73605
8,669;73607
8,671;73600
8,673;73600
8,675;73604
8,677;73603
8,679;73608
8,681;73609
8,683;73609
8,685;73598
8,687;73608
8,689;73606
8,691;73606
8,693;73599
8,695;73604
8,697;73598
8,699;73614
8,701;73614
8,703;73606
8,705;73612
8,707;73598
8,709;73601
8,711;73601
8,713;73622
8,715;73605
8,717;73599
8,719;73607
8,721;73607
8,723;73615
8,725;73614
8,727;73607
8,729;73605
8,731;73605
8,733;73603
8,735;73609
8,737;73587
8,739;73607
8,741;73607
8,743;73613
8,745;73607
8,747;73601
8,749;73608
8,751;73608
8,753;73611
8,755;73615
8,757;73625
8,759;73612
8,761;73612
8,763;73609
8,765;73617
8,767;73609
8,769;73600
8,771;73600
8,773;73607
8,775;73604
8,777;73631
8,779;73631
8,781;73635
8,783;73617
8,785;73632
8,787;73640
8,789;73640
8,791;73636
8,793;73624
8,795;73630
8,797;73629
8,799;73629
8,801;73641
8,803;73629
8,805;73622
8,807;73630
8,809;73630
8,811;73635
8,813;73628
8,815;73634
8,817;73653
8,819;73653
8,821;73641
8,823;73644
8,825;73638
8,827;73640
8,829;73640
8,831;73640
8,833;73649
8,835;73649
8,837;73640
8,839;73640
8,841;73657
8,843;73662
8,845;73659
8,847;73661
8,849;73661
8,851;73663
8,853;73665
8,855;73675
8,857;73670
8,859;73670
8,861;73670
8,863;73674
8,865;73680
8,867;73680
8,869;73662
8,871;73677
8,873;73670
8,875;73672
8,877;73672
8,879;73679
8,881;73681
8,883;73675
8,885;73680
8,887;73680
8,889;73685
8,891;73688
8,893;73676
8,895;73674
8,897;73674
8,899;73703
8,901;73685
8,903;73682
8,905;73695
8,907;73695
8,909;73692
8,911;73702
8,913;73687
8,915;73698
8,917;73698
8,919;73684
8,921;73692
8,923;73688
8,925;73692
8,927;73692
8,929;73711
8,931;73722
8,933;73710
8,935;73712
8,937;73712
8,939;73710
8,941;73711
8,943;73720
8,945;73718
8,947;73718
8,949;73720
8,951;73711
8,953;73704
8,955;73704
8,957;73718
8,959;73710
8,961;73705
8,963;73712
8,965;73712
8,967;73731
8,969;73712
8,971;73717
8,973;73724
8,975;73724
8,977;73718
8,979;73727
8,981;73722
8,983;73723
8,985;73723
8,987;73723
8,989;73734
8,991;73720
8,993;73715
8,995;73715
8,997;73732
8,999;73733
9,001;73728
9,003;73747
9,005;73747
9,007;73729
9,009;73728
9,011;73730
9,013;73737
9,015;73737
9,017;73732
9,019;73726
9,021;73724
9,023;73727
9,025;73727
9,027;73735
9,029;73726
9,031;73747
9,033;73743
9,035;73743
9,037;73745
9,039;73741
9,041;73750
9,043;73750
9,045;73743
9,047;73754
9,049;73747
9,051;73750
9,053;73750
9,055;73736
9,057;73752
9,059;73746
9,061;73742
9,063;73742
9,065;73759
9,067;73754
9,069;73750
9,071;73747
9,073;73747
9,075;73746
9,077;73754
9,079;73763
9,081;73759
9,083;73759
9,085;73757
9,087;73766
9,089;73746
9,091;73751
9,093;73751
9,095;73757
9,097;73767
9,099;73760
9,101;73773
9,103;73773
9,105;73766
9,107;73767
9,109;73767
9,111;73777
9,113;73777
9,115;73769
9,117;73771
9,119;73778
9,121;73774
9,123;73774
9,125;73788
9,127;73778
9,129;73785
9,131;73785
9,133;73787
9,135;73784
9,137;73792
9,139;73797
9,141;73797
9,143;73786
9,145;73780
9,147;73781
9,149;73793
9,151;73793
9,153;73798
9,155;73791
9,157;73788
9,159;73801
9,161;73801
9,163;73815
9,165;73788
9,167;73785
9,169;73798
9,171;73798
9,173;73814
9,175;73795
9,177;73798
9,179;73792
9,181;73792
9,183;73804
9,185;73799
9,187;73777
9,189;73787
9,191;73787
9,193;73799
9,195;73787
9,197;73788
9,199;73765
9,201;73765
9,203;73761
9,205;73760
9,207;73740
9,209;73734
9,211;73734
9,213;73719
9,215;73702
9,217;73702
9,219;73702
9,221;73681
9,223;73665
9,225;73650
9,227;73648
9,229;73648
9,231;73630
9,233;73618
9,235;73605
9,237;73599
9,239;73599
9,241;73581
9,243;73566
9,245;73563
9,247;73569
9,249;73569
9,251;73568
9,253;73556
9,255;73545
9,257;73532
9,259;73532
9,261;73538
9,263;73520
9,265;73523
9,267;73529
9,269;73529
9,271;73534
9,273;73525
9,275;73520
9,277;73520
9,279;73520
9,281;73532
9,283;73529
9,285;73526
9,287;73524
9,289;73524
9,291;73515
9,293;73520
9,295;73551
9,297;73526
9,299;73526
9,301;73524
9,303;73521
9,305;73529
9,307;73529
9,309;73520
9,311;73527
9,313;73531
9,315;73534
9,317;73534
9,319;73530
9,321;73528
9,323;73529
9,325;73538
9,327;73538
9,329;73533
9,331;73557
9,333;73549
9,335;73537
9,337;73537
9,339;73546
9,341;73555
9,343;73551
9,345;73539
9,347;73539
9,349;73555
9,351;73570
9,353;73558
9,355;73571
9,357;73571
9,359;73568
9,361;73566
9,363;73555
9,365;73561
9,367;73561
9,369;73568
9,371;73560
9,373;73551
9,375;73570
9,377;73570
9,379;73577
9,381;73567
9,383;73578
9,385;73587
9,387;73587
9,389;73586
9,391;73576
9,393;73589
9,395;73577
9,397;73577
9,399;73575
9,401;73577
9,403;73585
9,405;73585
9,407;73580
9,409;73588
9,411;73588
9,413;73586
9,415;73586
9,417;73597
9,419;73589
9,421;73582
9,423;73595
9,425;73595
9,427;73591
9,429;73611
9,431;73597
9,433;73603
9,435;73603
9,437;73606
9,439;73611
9,441;73592
9,443;73622
9,445;73622
9,447;73605
9,449;73620
9,451;73618
9,453;73631
9,455;73631
9,457;73609
9,459;73612
9,461;73607
9,463;73614
9,465;73614
9,467;73610
9,469;73618
9,471;73611
9,473;73609
9,475;73609
9,477;73612
9,479;73597
9,481;73616
9,483;73620
9,485;73620
9,487;73623
9,489;73624
9,491;73624
9,493;73624
9,495;73628
9,497;73633
9,499;73632
9,501;73610
9,503;73610
9,505;73608
9,507;73627
9,509;73609
9,511;73628
9,513;73628
9,515;73617
9,517;73616
9,519;73610
9,521;73619
9,523;73619
9,525;73614
9,527;73619
9,529;73620
9,531;73619
9,533;73619
9,535;73635
9,537;73625
9,539;73614
9,541;73629
9,543;73629
9,545;73622
9,547;73625
9,549;73631
9,551;73624
9,553;73624
9,555;73625
9,557;73618
9,559;73617
9,561;73623
9,563;73623
9,565;73624
9,567;73614
9,569;73637
9,571;73629
9,573;73629
9,575;73641
9,577;73634
9,579;73639
9,581;73639
9,583;73631
9,585;73639
9,587;73653
9,589;73643
9,591;73643
9,593;73638
9,595;73631
9,597;73632
9,599;73651
9,601;73651
9,603;73649
9,605;73647
9,607;73644
9,609;73647
9,611;73647
9,613;73648
9,615;73652
9,617;73654
9,619;73653
9,621;73653
9,623;73642
9,625;73647
9,627;73660
9,629;73657
9,631;73657
9,633;73659
9,635;73664
9,637;73650
9,639;73672
9,641;73672
9,643;73677
9,645;73663
9,647;73663
9,649;73679
9,651;73679
9,653;73683
9,655;73686
9,657;73672
9,659;73673
9,661;73673
9,663;73679
9,665;73679
9,667;73673
9,669;73673
9,671;73692
9,673;73679
9,675;73676
9,677;73695
9,679;73695
9,681;73688
9,683;73683
9,685;73693
9,687;73700
9,689;73700
9,691;73693
9,693;73700
9,695;73693
9,697;73699
9,699;73699
9,701;73704
9,703;73702
9,705;73700
9,707;73707
9,709;73707
9,711;73699
9,713;73706
9,715;73707
9,717;73713
9,719;73713
9,721;73720
9,723;73711
9,725;73707
9,727;73707
9,729;73707
9,731;73724
9,733;73717
9,735;73709
9,737;73709
9,739;73709
9,741;73721
9,743;73712
9,745;73741
9,747;73724
9,749;73724
9,751;73725
9,753;73724
9,755;73746
9,757;73746
9,759;73720
9,761;73729
9,763;73725
9,765;73734
9,767;73734
9,769;73730
9,771;73729
9,773;73722
9,775;73743
9,777;73743
9,779;73735
9,781;73743
9,783;73732
9,785;73744
9,787;73744
9,789;73735
9,791;73748
9,793;73735
9,795;73728
9,797;73728
9,799;73741
9,801;73738
9,803;73740
9,805;73753
9,807;73753
9,809;73758
9,811;73764
9,813;73740
9,815;73750
9,817;73750
9,819;73761
9,821;73762
9,823;73748
9,825;73758
9,827;73758
9,829;73742
9,831;73748
9,833;73769
9,835;73754
9,837;73754
9,839;73760
9,841;73768
9,843;73772
9,845;73772
9,847;73765
9,849;73763
9,851;73753
9,853;73768
9,855;73768
9,857;73767
9,859;73754
9,861;73752
9,863;73763
9,865;73763
9,867;73758
9,869;73761
9,871;73754
9,873;73766
9,875;73766
9,877;73769
9,879;73787
9,881;73771
9,883;73761
9,885;73761
9,887;73775
9,889;73784
9,891;73776
9,893;73773
9,895;73773
9,897;73774
9,899;73774
9,901;73767
9,903;73779
9,905;73779
9,907;73777
9,909;73787
9,911;73783
9,913;73784
9,915;73784
9,917;73786
9,919;73783
9,921;73787
9,923;73780
9,925;73780
9,927;73790
9,929;73757
9,931;73809
9,933;73809
9,935;73799
9,937;73794
9,939;73796
9,941;73795
9,943;73795
9,945;73792
9,947;73807
9,949;73799
9,951;73796
9,953;73796
9,955;73808
9,957;73809
9,959;73790
9,961;73801
9,963;73801
9,965;73799
9,967;73803
9,969;73805
9,971;73811
9,973;73811
9,975;73808
9,977;73806
9,979;73806
9,981;73818
9,983;73818
9,985;73811
9,987;73816
9,989;73822
9,991;73828
9,993;73828
9,995;73837
9,997;73832
9,999;73828
10,001;73834
10,003;73834
10,005;73828
10,007;73830
10,009;73837
10,011;73823
10,013;73823
10,015;73836
10,017;73825
10,019;73831
10,021;73831
10,023;73821
10,025;73822
10,027;73821
10,029;73821
10,031;73821
10,033;73821
10,035;73810
10,037;73799
10,039;73786
10,041;73786
10,043;73758
10,045;73761
10,047;73735
10,049;73727
10,051;73727
10,053;73721
10,055;73700
10,057;73673
10,059;73665
10,061;73665
10,063;73642
10,065;73647
10,067;73618
10,069;73622
10,071;73622
10,073;73607
10,075;73606
10,077;73581
10,079;73583
10,081;73583
10,083;73565
10,085;73573
10,087;73554
10,089;73560
10,091;73560
10,093;73562
10,095;73565
10,097;73559
10,099;73543
10,101;73543
10,103;73542
10,105;73535
10,107;73553
10,109;73553
10,111;73542
10,113;73537
10,115;73523
10,117;73529
10,119;73529
10,121;73548
10,123;73545
10,125;73537
10,127;73545
10,129;73545
10,131;73548
10,133;73546
10,135;73538
10,137;73548
10,139;73548
10,141;73535
10,143;73547
10,145;73558
10,147;73551
10,149;73551
10,151;73547
10,153;73563
10,155;73543
10,157;73553
10,159;73553
10,161;73552
10,163;73562
10,165;73552
10,167;73551
10,169;73551
10,171;73583
10,173;73568
10,175;73571
10,177;73558
10,179;73558
10,181;73575
10,183;73574
10,185;73578
10,187;73578
10,189;73583
10,191;73577
10,193;73587
10,195;73602
10,197;73602
10,199;73578
10,201;73603
10,203;73584
10,205;73592
10,207;73592
10,209;73582
10,211;73590
10,213;73590
10,215;73592
10,217;73592
10,219;73593
10,221;73572
10,223;73579
10,225;73594
10,227;73594
10,229;73593
10,231;73600
10,233;73595
10,235;73592
10,237;73592
10,239;73604
10,241;73603
10,243;73595
10,245;73615
10,247;73615
10,249;73603
10,251;73607
10,253;73590
10,255;73608
10,257;73608
10,259;73602
10,261;73600
10,263;73614
10,265;73606
10,267;73606
10,269;73610
10,271;73624
10,273;73624
10,275;73624
10,277;73611
10,279;73618
10,281;73612
10,283;73635
10,285;73635
10,287;73616
10,289;73626
10,291;73633
10,293;73641
10,295;73641
10,297;73626
10,299;73631
10,301;73627
10,303;73644
10,305;73644
10,307;73641
10,309;73643
10,311;73635
10,313;73649
10,315;73649
10,317;73640
10,319;73644
10,321;73639
10,323;73648
10,325;73648
10,327;73642
10,329;73653
10,331;73641
10,333;73640
10,335;73640
10,337;73645
10,339;73651
10,341;73640
10,343;73625
10,345;73625
10,347;73632
10,349;73653
10,351;73638
10,353;73636
10,355;73636
10,357;73643
10,359;73643
10,361;73637
10,363;73637
10,365;73626
10,367;73644
10,369;73646
10,371;73655
10,373;73655
10,375;73647
10,377;73638
10,379;73643
10,381;73646
10,383;73646
10,385;73653
10,387;73646
10,389;73648
10,391;73653
10,393;73653
10,395;73648
10,397;73645
10,399;73635
10,401;73649
10,403;73649
10,405;73644
10,407;73648
10,409;73637
10,411;73650
10,413;73650
10,415;73648
10,417;73653
10,419;73635
10,421;73651
10,423;73651
10,425;73655
10,427;73659
10,429;73649
10,431;73654
10,433;73654
10,435;73660
10,437;73659
10,439;73667
10,441;73666
10,443;73666
10,445;73668
10,447;73664
10,449;73665
10,451;73674
10,453;73674
10,455;73675
10,457;73683
10,459;73681
10,461;73681
10,463;73687
10,465;73671
10,467;73674
10,469;73690
10,471;73690
10,473;73663
10,475;73685
10,477;73675
10,479;73686
10,481;73686
10,483;73689
10,485;73686
10,487;73691
10,489;73700
10,491;73700
10,493;73689
10,495;73689
10,497;73673
10,499;73704
10,501;73704
10,503;73693
10,505;73720
10,507;73694
10,509;73701
10,511;73701
10,513;73683
10,515;73702
10,517;73705
10,519;73718
10,521;73718
10,523;73711
10,525;73725
10,527;73725
10,529;73719
10,531;73719
10,533;73700
10,535;73724
10,537;73729
10,539;73718
10,541;73718
10,543;73719
10,545;73719
10,547;73723
10,549;73723
10,551;73721
10,553;73729
10,555;73720
10,557;73738
10,559;73738
10,561;73745
10,563;73732
10,565;73729
10,567;73730
10,569;73730
10,571;73735
10,573;73730
10,575;73728
10,577;73728
10,579;73728
10,581;73720
10,583;73734
10,585;73721
10,587;73733
10,589;73733
10,591;73741
10,593;73747
10,595;73730
10,597;73756
10,599;73756
10,601;73754
10,603;73738
10,605;73742
10,607;73742
10,609;73742
10,611;73747
10,613;73748
10,615;73747
10,617;73747
10,619;73747
10,621;73771
10,623;73755
10,625;73756
10,627;73749
10,629;73749
10,631;73742
10,633;73750
10,635;73758
10,637;73758
10,639;73758
10,641;73758
10,643;73754
10,645;73759
10,647;73759
10,649;73752
10,651;73756
10,653;73757
10,655;73752
10,657;73752
10,659;73746
10,661;73758
10,663;73749
10,665;73758
10,667;73758
10,669;73762
10,671;73761
10,673;73754
10,675;73764
10,677;73764
10,679;73762
10,681;73772
10,683;73755
10,685;73761
10,687;73761
10,689;73765
10,691;73752
10,693;73766
10,695;73783
10,697;73783
10,699;73777
10,701;73788
10,703;73796
10,705;73785
10,707;73785
10,709;73779
10,711;73783
10,713;73786
10,715;73788
10,717;73788
10,719;73794
10,721;73793
10,723;73795
10,725;73795
10,727;73784
10,729;73780
10,731;73786
10,733;73775
10,735;73775
10,737;73795
10,739;73788
10,741;73784
10,743;73785
10,745;73785
10,747;73791
10,749;73800
10,751;73776
10,753;73799
10,755;73799
10,757;73798
10,759;73800
10,761;73790
10,763;73803
10,765;73803
10,767;73803
10,769;73793
10,771;73791
10,773;73802
10,775;73802
10,777;73800
10,779;73820
10,781;73798
10,783;73807
10,785;73807
10,787;73814
10,789;73808
10,791;73821
10,793;73816
10,795;73816
10,797;73819
10,799;73815
10,801;73825
10,803;73807
10,805;73807
10,807;73825
10,809;73829
10,811;73840
10,813;73840
10,815;73826
10,817;73830
10,819;73835
10,821;73845
10,823;73845
10,825;73843
10,827;73844
10,829;73818
10,831;73833
10,833;73833
10,835;73845
10,837;73842
10,839;73832
10,841;73833
10,843;73833
10,845;73821
10,847;73825
10,849;73802
10,851;73808
10,853;73808
10,855;73805
10,857;73799
10,859;73778
10,861;73775
10,863;73775
10,865;73745
10,867;73733
10,869;73714
10,871;73717
10,873;73717
10,875;73701
10,877;73681
10,879;73673
10,881;73653
10,883;73653
10,885;73655
10,887;73642
10,889;73638
10,891;73629
10,893;73629
10,895;73621
10,897;73607
10,899;73603
10,901;73603
10,903;73595
10,905;73578
10,907;73568
10,909;73590
10,911;73590
10,913;73590
10,915;73564
10,917;73556
10,919;73563
10,921;73563
10,923;73558
10,925;73556
10,927;73550
10,929;73550
10,931;73550
10,933;73539
10,935;73557
10,937;73531
10,939;73559
10,941;73559
10,943;73545
10,945;73551
10,947;73544
10,949;73539
10,951;73539
10,953;73551
10,955;73553
10,957;73548
10,959;73551
10,961;73551
10,963;73534
10,965;73558
10,967;73559
10,969;73564
10,971;73564
10,973;73566
10,975;73564
10,977;73569
10,979;73571
10,981;73571
10,983;73566
10,985;73565
10,987;73582
10,989;73582
10,991;73578
10,993;73577
10,995;73583
10,997;73589
10,999;73589
11,001;73585
11,003;73586
11,005;73600
11,007;73585
11,009;73585
11,011;73595
11,013;73600
11,015;73602
11,017;73585
11,019;73585
11,021;73596
11,023;73583
11,025;73599
11,027;73594
11,029;73594
11,031;73601
11,033;73602
11,035;73593
11,037;73602
11,039;73602
11,041;73608
11,043;73607
11,045;73604
11,047;73622
11,049;73622
11,051;73613
11,053;73612
11,055;73620
11,057;73607
11,059;73607
11,061;73614
11,063;73610
11,065;73610
11,067;73610
11,069;73610
11,071;73628
11,073;73607
11,075;73617
11,077;73617
11,079;73623
11,081;73625
11,083;73618
11,085;73629
11,087;73629
11,089;73622
11,091;73629
11,093;73632
11,095;73639
11,097;73639
11,099;73638
11,101;73640
11,103;73642
11,105;73638
11,107;73638
11,109;73634
11,111;73635
11,113;73646
11,115;73643
11,117;73643
11,119;73641
11,121;73637
11,123;73640
11,125;73649
11,127;73649
11,129;73645
11,131;73648
11,133;73637
11,135;73638
11,137;73638
11,139;73646
11,141;73657
11,143;73648
11,145;73655
11,147;73655
11,149;73656
11,151;73654
11,153;73657
11,155;73657
11,157;73657
11,159;73651
11,161;73653
11,163;73654
11,165;73646
11,167;73646
11,169;73650
11,171;73646
11,173;73645
11,175;73645
11,177;73632
11,179;73651
11,181;73653
11,183;73641
11,185;73641
11,187;73640
11,189;73632
11,191;73636
11,193;73655
11,195;73655
11,197;73644
11,199;73646
11,201;73651
11,203;73642
11,205;73642
11,207;73648
11,209;73647
11,211;73641
11,213;73645
11,215;73645
11,217;73650
11,219;73650
11,221;73632
11,223;73646
11,225;73646
11,227;73649
11,229;73668
11,231;73647
11,233;73653
11,235;73653
11,237;73650
11,239;73645
11,241;73663
11,243;73659
11,245;73659
11,247;73653
11,249;73658
11,251;73666
11,253;73646
11,255;73646
11,257;73656
11,259;73659
11,261;73663
11,263;73663
11,265;73660
11,267;73655
11,269;73664
11,271;73664
11,273;73664
11,275;73660
11,277;73659
11,279;73672
11,281;73669
11,283;73669
11,285;73670
11,287;73673
11,289;73673
11,291;73681
11,293;73681
11,295;73682
11,297;73685
11,299;73672
11,301;73684
11,303;73684
11,305;73689
11,307;73690
11,309;73689
11,311;73691
11,313;73691
11,315;73702
11,317;73704
11,319;73693
11,321;73701
11,323;73701
11,325;73707
11,327;73694
11,329;73698
11,331;73710
11,333;73710
11,335;73699
11,337;73707
11,339;73715
11,341;73723
11,343;73723
11,345;73719
11,347;73720
11,349;73722
11,351;73722
11,353;73716
11,355;73716
11,357;73718
11,359;73720
11,361;73720
11,363;73733
11,365;73724
11,367;73713
11,369;73724
11,371;73724
11,373;73729
11,375;73719
11,377;73710
11,379;73732
11,381;73732
11,383;73729
11,385;73732
11,387;73732
11,389;73730
11,391;73730
11,393;73732
11,395;73731
11,397;73719
11,399;73739
11,401;73739
11,403;73739
11,405;73741
11,407;73738
11,409;73757
11,411;73757
11,413;73727
11,415;73749
11,417;73729
11,419;73740
11,421;73740
11,423;73745
11,425;73749
11,427;73748
11,429;73747
11,431;73747
11,433;73730
11,435;73755
11,437;73765
11,439;73765
11,441;73746
11,443;73758
11,445;73757
11,447;73771
11,449;73771
11,451;73760
11,453;73764
11,455;73758
11,457;73768
11,459;73768
11,461;73758
11,463;73763
11,465;73755
11,467;73762
11,469;73762
11,471;73760
11,473;73767
11,475;73754
11,477;73761
11,479;73761
11,481;73762
11,483;73760
11,485;73744
11,487;73763
11,489;73763
11,491;73766
11,493;73761
11,495;73763
11,497;73786
11,499;73786
11,501;73780
11,503;73772
11,505;73772
11,507;73790
11,509;73790
11,511;73781
11,513;73772
11,515;73787
11,517;73786
11,519;73786
11,521;73802
11,523;73792
11,525;73794
11,527;73794
11,529;73781
11,531;73776
11,533;73782
11,535;73794
11,537;73794
11,539;73788
11,541;73787
11,543;73786
11,545;73788
11,547;73788
11,549;73815
11,551;73794
11,553;73798
11,555;73808
11,557;73808
11,559;73806
11,561;73805
11,563;73796
11,565;73803
11,567;73803
11,569;73800
11,571;73791
11,573;73790
11,575;73799
11,577;73799
11,579;73800
11,581;73795
11,583;73781
11,585;73788
11,587;73788
11,589;73786
11,591;73776
11,593;73754
11,595;73767
11,597;73767
11,599;73747
11,601;73735
11,603;73727
11,605;73710
11,607;73710
11,609;73697
11,611;73691
11,613;73664
11,615;73667
11,617;73667
11,619;73655
11,621;73642
11,623;73634
11,625;73634
11,627;73620
11,629;73603
11,631;73604
11,633;73612
11,635;73612
11,637;73581
11,639;73590
11,641;73568
11,643;73562
11,645;73562
11,647;73544
11,649;73553
11,651;73550
11,653;73550
11,655;73550
11,657;73538
11,659;73539
11,661;73525
11,663;73548
11,665;73548
11,667;73536
11,669;73531
11,671;73526
11,673;73539
11,675;73539
11,677;73532
11,679;73542
11,681;73531
11,683;73527
11,685;73527
11,687;73530
11,689;73523
11,691;73540
11,693;73538
11,695;73538
11,697;73533
11,699;73531
11,701;73538
11,703;73512
11,705;73512
11,707;73541
11,709;73550
11,711;73561
11,713;73561
11,715;73545
11,717;73549
11,719;73534
11,721;73543
11,723;73543
11,725;73552
11,727;73552
11,729;73543
11,731;73549
11,733;73549
11,735;73551
11,737;73562
11,739;73549
11,741;73563
11,743;73563
11,745;73564
11,747;73561
11,749;73559
11,751;73565
11,753;73565
11,755;73567
11,757;73570
11,759;73551
11,761;73569
11,763;73569
11,765;73576
11,767;73565
11,769;73575
11,771;73564
11,773;73564
11,775;73572
11,777;73572
11,779;73568
11,781;73565
11,783;73565
11,785;73564
11,787;73576
11,789;73587
11,791;73581
11,793;73581
11,795;73579
11,797;73580
11,799;73591
11,801;73591
11,803;73590
11,805;73591
11,807;73582
11,809;73598
11,811;73598
11,813;73597
11,815;73596
11,817;73591
11,819;73596
11,821;73596
11,823;73598
11,825;73592
11,827;73611
11,829;73615
11,831;73615
11,833;73618
11,835;73608
11,837;73605
11,839;73616
11,841;73616
11,843;73615
11,845;73618
11,847;73609
11,849;73617
11,851;73617
11,853;73613
11,855;73620
11,857;73614
11,859;73624
11,861;73624
11,863;73606
11,865;73620
11,867;73622
11,869;73623
11,871;73623
11,873;73623
11,875;73620
11,877;73633
11,879;73620
11,881;73620
11,883;73610
11,885;73618
11,887;73619
11,889;73619
11,891;73612
11,893;73615
11,895;73626
11,897;73632
11,899;73632
11,901;73623
11,903;73624
11,905;73625
11,907;73632
11,909;73632
11,911;73627
11,913;73632
11,915;73630
11,917;73625
11,919;73625
11,921;73634
11,923;73646
11,925;73630
11,927;73630
11,929;73630
11,931;73637
11,933;73641
11,935;73612
11,937;73638
11,939;73638
11,941;73639
11,943;73629
11,945;73629
11,947;73638
11,949;73638
11,951;73632
11,953;73627
11,955;73632
11,957;73636
11,959;73636
11,961;73635
11,963;73636
11,965;73633
11,967;73637
11,969;73637
11,971;73649
11,973;73642
11,975;73649
11,977;73649
11,979;73637
11,981;73644
11,983;73632
11,985;73648
11,987;73648
11,989;73644
11,991;73651
11,993;73649
11,995;73636
11,997;73636
11,999;73658
12,001;73659
12,003;73653
12,005;73682
12,007;73682
12,009;73655
12,011;73670
12,013;73654
12,015;73656
12,017;73656
12,019;73664
12,021;73663
12,023;73676
12,025;73684
12,027;73684
12,029;73667
12,031;73673
12,033;73681
12,035;73685
12,037;73685
12,039;73680
12,041;73693
12,043;73694
12,045;73688
12,047;73688
12,049;73691
12,051;73693
12,053;73704
12,055;73692
12,057;73692
12,059;73715
12,061;73704
12,063;73712
12,065;73712
12,067;73717
12,069;73709
12,071;73704
12,073;73720
12,075;73720
12,077;73716
12,079;73717
12,081;73705
12,083;73716
12,085;73716
12,087;73715
12,089;73718
12,091;73715
12,093;73715
12,095;73715
12,097;73715
12,099;73716
12,101;73719
12,103;73748
12,105;73748
12,107;73717
12,109;73731
12,111;73727
12,113;73736
12,115;73736
12,117;73731
12,119;73734
12,121;73734
12,123;73728
12,125;73728
12,127;73737
12,129;73744
12,131;73731
12,133;73744
12,135;73744
12,137;73739
12,139;73743
12,141;73745
12,143;73742
12,145;73742
12,147;73752
12,149;73742
12,151;73749
12,153;73749
12,155;73726
12,157;73754
12,159;73747
12,161;73752
12,163;73752
12,165;73747
12,167;73742
12,169;73746
12,171;73741
12,173;73741
12,175;73746
12,177;73751
12,179;73734
12,181;73749
12,183;73749
12,185;73750
12,187;73751
12,189;73739
12,191;73750
12,193;73750
12,195;73759
12,197;73746
12,199;73746
12,201;73770
12,203;73770
12,205;73757
12,207;73766
12,209;73761
12,211;73766
12,213;73766
12,215;73760
12,217;73775
12,219;73775
12,221;73758
12,223;73758
12,225;73779
12,227;73776
12,229;73768
12,231;73780
12,233;73780
12,235;73784
12,237;73790
12,239;73795
12,241;73795
12,243;73794
12,245;73788
12,247;73782
12,249;73797
12,251;73797
12,253;73790
12,255;73781
12,257;73786
12,259;73795
12,261;73795
12,263;73811
12,265;73805
12,267;73785
12,269;73793
12,271;73793
12,273;73801
12,275;73784
12,277;73788
12,279;73798
12,281;73798
12,283;73787
12,285;73784
12,287;73770
12,289;73774
12,291;73774
12,293;73766
12,295;73765
12,297;73746
12,299;73757
12,301;73757
12,303;73735
12,305;73727
12,307;73713
12,309;73705
12,311;73705
12,313;73688
12,315;73695
12,317;73669
12,319;73656
12,321;73656
12,323;73660
12,325;73631
12,327;73638
12,329;73638
12,331;73617
12,333;73595
12,335;73597
12,337;73599
12,339;73599
12,341;73574
12,343;73566
12,345;73560
12,347;73560
12,349;73560
12,351;73557
12,353;73549
12,355;73545
12,357;73547
12,359;73547
12,361;73537
12,363;73531
12,365;73530
12,367;73531
12,369;73531
12,371;73526
12,373;73522
12,375;73513
12,377;73530
12,379;73530
12,381;73521
12,383;73528
12,385;73506
12,387;73519
12,389;73519
12,391;73522
12,393;73524
12,395;73539
12,397;73523
12,399;73523
12,401;73520
12,403;73520
12,405;73540
12,407;73534
12,409;73534
12,411;73551
12,413;73536
12,415;73535
12,417;73535
12,419;73544
12,421;73557
12,423;73531
12,425;73557
12,427;73557
12,429;73553
12,431;73546
12,433;73541
12,435;73535
12,437;73535
12,439;73556
12,441;73545
12,443;73542
12,445;73538
12,447;73538
12,449;73550
12,451;73545
12,453;73550
12,455;73557
12,457;73557
12,459;73554
12,461;73558
12,463;73565
12,465;73553
12,467;73553
12,469;73564
12,471;73563
12,473;73553
12,475;73562
12,477;73562
12,479;73563
12,481;73559
12,483;73553
12,485;73548
12,487;73548
12,489;73562
12,491;73567
12,493;73563
12,495;73560
12,497;73560
12,499;73558
12,501;73575
12,503;73572
12,505;73572
12,507;73562
12,509;73554
12,511;73567
12,513;73574
12,515;73574
12,517;73564
12,519;73569
12,521;73569
12,523;73565
12,525;73565
12,527;73577
12,529;73579
12,531;73572
12,533;73584
12,535;73584
12,537;73586
12,539;73587
12,541;73593
12,543;73595
12,545;73595
12,547;73597
12,549;73601
12,551;73582
12,553;73617
12,555;73617
12,557;73603
12,559;73601
12,561;73595
12,563;73601
12,565;73601
12,567;73604
12,569;73608
12,571;73610
12,573;73594
12,575;73594
12,577;73601
12,579;73607
12,581;73606
12,583;73600
12,585;73600
12,587;73606
12,589;73609
12,591;73616
12,593;73616
12,595;73619
12,597;73614
12,599;73610
12,601;73615
12,603;73615
12,605;73623
12,607;73614
12,609;73624
12,611;73622
12,613;73622
12,615;73631
12,617;73620
12,619;73615
12,621;73624
12,623;73624
12,625;73622
12,627;73619
12,629;73620
12,631;73618
12,633;73618
12,635;73620
12,637;73635
12,639;73608
12,641;73622
12,643;73622
12,645;73622
12,647;73631
12,649;73623
12,651;73617
12,653;73617
12,655;73629
12,657;73630
12,659;73626
12,661;73621
12,663;73621
12,665;73633
12,667;73634
12,669;73629
12,671;73629
12,673;73629
12,675;73634
12,677;73626
12,679;73631
12,681;73631
12,683;73623
12,685;73630
12,687;73637
12,689;73625
12,691;73625
12,693;73637
12,695;73643
12,697;73637
12,699;73640
12,701;73640
12,703;73648
12,705;73659
12,707;73645
12,709;73644
12,711;73644
12,713;73666
12,715;73654
12,717;73640
12,719;73654
12,721;73654
12,723;73658
12,725;73653
12,727;73647
12,729;73656
12,731;73656
12,733;73666
12,735;73659
12,737;73650
12,739;73665
12,741;73665
12,743;73677
12,745;73674
12,747;73681
12,749;73676
12,751;73676
12,753;73672
12,755;73670
12,757;73692
12,759;73685
12,761;73685
12,763;73671
12,765;73687
12,767;73687
12,769;73687
12,771;73687
12,773;73693
12,775;73690
12,777;73701
12,779;73701
12,781;73691
12,783;73695
12,785;73688
12,787;73703
12,789;73703
12,791;73698
12,793;73683
12,795;73690
12,797;73699
12,799;73699
12,801;73704
12,803;73705
12,805;73706
12,807;73708
12,809;73708
12,811;73706
12,813;73720
12,815;73699
12,817;73715
12,819;73715
12,821;73711
12,823;73724
12,825;73710
12,827;73720
12,829;73720
12,831;73717
12,833;73721
12,835;73726
12,837;73729
12,839;73729
12,841;73718
12,843;73728
12,845;73749
12,847;73718
12,849;73718
12,851;73716
12,853;73725
12,855;73721
12,857;73721
12,859;73734
12,861;73733
12,863;73732
12,865;73741
12,867;73741
12,869;73740
12,871;73728
12,873;73740
12,875;73733
12,877;73733
12,879;73732
12,881;73738
12,883;73734
12,885;73740
12,887;73740
12,889;73738
12,891;73740
12,893;73724
12,895;73720
12,897;73720
12,899;73739
12,901;73743
12,903;73745
12,905;73744
12,907;73744
12,909;73745
12,911;73755
12,913;73739
12,915;73747
12,917;73747
12,919;73752
12,921;73753
12,923;73748
12,925;73754
12,927;73754
12,929;73752
12,931;73758
12,933;73775
12,935;73753
12,937;73753
12,939;73758
12,941;73760
12,943;73770
12,945;73770
12,947;73759
12,949;73764
12,951;73767
12,953;73782
12,955;73782
12,957;73760
12,959;73773
12,961;73771
12,963;73759
12,965;73759
12,967;73777
12,969;73769
12,971;73762
12,973;73778
12,975;73778
12,977;73773
12,979;73792
12,981;73777
12,983;73785
12,985;73785
12,987;73790
12,989;73783
12,991;73788
12,993;73784
12,995;73784
12,997;73788
12,999;73779
13,001;73785
13,003;73818
13,005;73818
13,007;73790
13,009;73799
13,011;73801
13,013;73803
13,015;73803
13,017;73805
13,019;73801
13,021;73797
13,023;73811
13,025;73811
13,027;73800
13,029;73792
13,031;73818
13,033;73818
13,035;73811
13,037;73806
13,039;73811
13,041;73813
13,043;73813
13,045;73805
13,047;73806
13,049;73805
13,051;73795
13,053;73795
13,055;73767
13,057;73770
13,059;73773
13,061;73763
13,063;73763
13,065;73747
13,067;73741
13,069;73714
13,071;73708
13,073;73708
13,075;73697
13,077;73678
13,079;73676
13,081;73673
13,083;73673
13,085;73653
13,087;73642
13,089;73610
13,091;73616
13,093;73616
13,095;73602
13,097;73600
13,099;73581
13,101;73583
13,103;73583
13,105;73583
13,107;73569
13,109;73562
13,111;73569
13,113;73569
13,115;73560
13,117;73561
13,119;73551
13,121;73542
13,123;73542
13,125;73544
13,127;73551
13,129;73545
13,131;73545
13,133;73541
13,135;73532
13,137;73536
13,139;73536
13,141;73536
13,143;73533
13,145;73530
13,147;73533
13,149;73534
13,151;73534
13,153;73547
13,155;73545
13,157;73529
13,159;73553
13,161;73553
13,163;73562
13,165;73554
13,167;73553
13,169;73551
13,171;73551
13,173;73546
13,175;73537
13,177;73542
13,179;73553
13,181;73553
13,183;73540
13,185;73547
13,187;73530
13,189;73557
13,191;73557
13,193;73547
13,195;73552
13,197;73561
13,199;73563
13,201;73563
13,203;73566
13,205;73572
13,207;73563
13,209;73558
13,211;73558
13,213;73566
13,215;73571
13,217;73570
13,219;73570
13,221;73560
13,223;73570
13,225;73567
13,227;73575
13,229;73575
13,231;73572
13,233;73575
13,235;73560
13,237;73566
13,239;73566
13,241;73573
13,243;73574
13,245;73574
13,247;73579
13,249;73579
13,251;73577
13,253;73580
13,255;73578
13,257;73569
13,259;73569
13,261;73576
13,263;73576
13,265;73577
13,267;73579
13,269;73579
13,271;73589
13,273;73586
13,275;73575
13,277;73583
13,279;73583
13,281;73580
13,283;73587
13,285;73577
13,287;73594
13,289;73594
13,291;73586
13,293;73582
13,295;73607
13,297;73599
13,299;73599
13,301;73599
13,303;73594
13,305;73612
13,307;73612
13,309;73614
13,311;73618
13,313;73604
13,315;73617
13,317;73617
13,319;73617
13,321;73612
13,323;73613
13,325;73607
13,327;73607
13,329;73625
13,331;73621
13,333;73621
13,335;73634
13,337;73634
13,339;73629
13,341;73634
13,343;73619
13,345;73600
13,347;73600
13,349;73622
13,351;73636
13,353;73620
13,355;73636
13,357;73636
13,359;73628
13,361;73638
13,363;73634
13,365;73627
13,367;73627
13,369;73633
13,371;73637
13,373;73633
13,375;73641
13,377;73641
13,379;73634
13,381;73637
13,383;73638
13,385;73633
13,387;73633
13,389;73634
13,391;73636
13,393;73642
13,395;73642
13,397;73642
13,399;73636
13,401;73637
13,403;73634
13,405;73634
13,407;73636
13,409;73639
13,411;73638
13,413;73651
13,415;73651
13,417;73646
13,419;73642
13,421;73638
13,423;73651
13,425;73651
13,427;73655
13,429;73639
13,431;73631
13,433;73647
13,435;73647
13,437;73663
13,439;73638
13,441;73642
13,443;73651
13,445;73651
13,447;73659
13,449;73647
13,451;73639
13,453;73682
13,455;73682
13,457;73653
13,459;73649
13,461;73651
13,463;73666
13,465;73666
13,467;73657
13,469;73665
13,471;73671
13,473;73662
13,475;73662
13,477;73669
13,479;73669
13,481;73677
13,483;73681
13,485;73681
13,487;73675
13,489;73680
13,491;73679
13,493;73679
13,495;73681
13,497;73664
13,499;73688
13,501;73690
13,503;73690
13,505;73678
13,507;73682
13,509;73696
13,511;73695
13,513;73695
13,515;73685
13,517;73690
13,519;73679
13,521;73700
13,523;73700
13,525;73701
13,527;73702
13,529;73701
13,531;73705
13,533;73705
13,535;73708
13,537;73710
13,539;73703
13,541;73702
13,543;73702
13,545;73709
13,547;73706
13,549;73706
13,551;73719
13,553;73719
13,555;73701
13,557;73710
13,559;73704
13,561;73716
13,563;73716
13,565;73721
13,567;73725
13,569;73720
13,571;73715
13,573;73715
13,575;73728
13,577;73716
13,579;73713
13,581;73713
13,583;73708
13,585;73726
13,587;73729
13,589;73735
13,591;73735
13,593;73729
13,595;73735
13,597;73741
13,599;73727
13,601;73727
13,603;73728
13,605;73724
13,607;73733
13,609;73740
13,611;73740
13,613;73747
13,615;73733
13,617;73732
13,619;73747
13,621;73747
13,623;73734
13,625;73743
13,627;73738
13,629;73742
13,631;73742
13,633;73736
13,635;73746
13,637;73732
13,639;73755
13,641;73755
13,643;73750
13,645;73744
13,647;73747
13,649;73755
13,651;73755
13,653;73756
13,655;73755
13,657;73763
13,659;73752
13,661;73752
13,663;73748
13,665;73761
13,667;73776
13,669;73776
13,671;73761
13,673;73770
13,675;73767
13,677;73778
13,679;73778
13,681;73773
13,683;73766
13,685;73759
13,687;73772
13,689;73772
13,691;73780
13,693;73770
13,695;73770
13,697;73778
13,699;73778
13,701;73764
13,703;73770
13,705;73765
13,707;73777
13,709;73777
13,711;73802
13,713;73783
13,715;73772
13,717;73776
13,719;73776
13,721;73787
13,723;73787
13,725;73780
13,727;73782
13,729;73782
13,731;73792
13,733;73794
13,735;73794
13,737;73796
13,739;73796
13,741;73799
13,743;73805
13,745;73809
13,747;73797
13,749;73797
13,751;73809
13,753;73805
13,755;73818
13,757;73815
13,759;73815
13,761;73806
13,763;73815
13,765;73826
13,767;73826
13,769;73815
13,771;73806
13,773;73805
13,775;73815
13,777;73815
13,779;73804
13,781;73814
13,783;73816
13,785;73812
13,787;73812
13,789;73816
13,791;73817
13,793;73818
13,795;73802
13,797;73802
13,799;73815
13,801;73829
13,803;73818
13,805;73814
13,807;73814
13,809;73826
13,811;73831
13,813;73823
13,815;73820
13,817;73820
13,819;73836
13,821;73838
13,823;73833
13,825;73845
13,827;73845
13,829;73841
13,831;73843
13,833;73841
13,835;73846
13,837;73846
13,839;73846
13,841;73848
13,843;73851
13,845;73847
13,847;73847
13,849;73851
13,851;73852
13,853;73858
13,855;73858
13,857;73858
13,859;73869
13,861;73852
13,863;73849
13,865;73849
13,867;73848
13,869;73850
13,871;73839
13,873;73827
13,875;73827
13,877;73826
13,879;73829
13,881;73813
13,883;73799
13,885;73799
13,887;73787
13,889;73777
13,891;73764
13,893;73751
13,895;73751
13,897;73736
13,899;73723
13,901;73706
13,903;73720
13,905;73720
13,907;73694
13,909;73692
13,911;73673
13,913;73659
13,915;73659
13,917;73651
13,919;73645
13,921;73620
13,923;73628
13,925;73628
13,927;73618
13,929;73604
13,931;73603
13,933;73595
13,935;73595
13,937;73596
13,939;73590
13,941;73581
13,943;73581
13,945;73576
13,947;73591
13,949;73566
13,951;73577
13,953;73577
13,955;73559
13,957;73562
13,959;73559
13,961;73557
13,963;73557
13,965;73557
13,967;73562
13,969;73564
13,971;73573
13,973;73573
13,975;73576
13,977;73569
13,979;73573
13,981;73571
13,983;73571
13,985;73577
13,987;73571
13,989;73560
13,991;73573
13,993;73573
13,995;73568
13,997;73573
13,999;73559
14,001;73567
14,003;73567
14,005;73570
14,007;73584
14,009;73580
14,011;73582
14,013;73582
14,015;73582
14,017;73580
14,019;73600
14,021;73599
14,023;73599
14,025;73585
14,027;73584
14,029;73601
14,031;73593
14,033;73593
14,035;73581
14,037;73594
14,039;73597
14,041;73597
14,043;73595
14,045;73597
14,047;73589
14,049;73603
14,051;73603
14,053;73603
14,055;73591
14,057;73587
14,059;73609
14,061;73609
14,063;73635
14,065;73605
14,067;73603
14,069;73595
14,071;73595
14,073;73607
14,075;73600
14,077;73594
14,079;73594
14,081;73594
14,083;73609
14,085;73597
14,087;73580
14,089;73594
14,091;73594
14,093;73592
14,095;73596
14,097;73599
14,099;73597
14,101;73597
14,103;73601
14,105;73608
14,107;73611
14,109;73614
14,111;73614
14,113;73607
14,115;73629
14,117;73622
14,119;73622
14,121;73622
14,123;73625
14,125;73633
14,127;73637
14,129;73637
14,131;73634
14,133;73631
14,135;73631
14,137;73656
14,139;73656
14,141;73629
14,143;73636
14,145;73640
14,147;73653
14,149;73653
14,151;73647
14,153;73648
14,155;73641
14,157;73647
14,159;73647
14,161;73649
14,163;73636
14,165;73642
14,167;73637
14,169;73637
14,171;73637
14,173;73644
14,175;73639
14,177;73648
14,179;73648
14,181;73648
14,183;73652
14,185;73624
14,187;73646
14,189;73646
14,191;73649
14,193;73654
14,195;73656
14,197;73655
14,199;73655
14,201;73660
14,203;73658
14,205;73654
14,207;73667
14,209;73667
14,211;73653
14,213;73651
14,215;73661
14,217;73661
14,219;73652
14,221;73678
14,223;73655
14,225;73659
14,227;73659
14,229;73662
14,231;73654
14,233;73650
14,235;73659
14,237;73659
14,239;73663
14,241;73656
14,243;73655
14,245;73644
14,247;73644
14,249;73658
14,251;73663
14,253;73637
14,255;73660
14,257;73660
14,259;73663
14,261;73661
14,263;73651
14,265;73658
14,267;73658
14,269;73660
14,271;73675
14,273;73654
14,275;73678
14,277;73678
14,279;73665
14,281;73675
14,283;73668
14,285;73658
14,287;73658
14,289;73665
14,291;73676
14,293;73685
14,295;73687
14,297;73687
14,299;73679
14,301;73686
14,303;73686
14,305;73686
14,307;73690
14,309;73687
14,311;73691
14,313;73694
14,315;73694
14,317;73691
14,319;73690
14,321;73682
14,323;73699
14,325;73699
14,327;73704
14,329;73701
14,331;73705
14,333;73709
14,335;73709
14,337;73706
14,339;73712
14,341;73708
14,343;73715
14,345;73715
14,347;73715
14,349;73718
14,351;73704
14,353;73726
14,355;73726
14,357;73706
14,359;73728
14,361;73721
14,363;73718
14,365;73718
14,367;73720
14,369;73725
14,371;73728
14,373;73732
14,375;73732
14,377;73733
14,379;73734
14,381;73733
14,383;73748
14,385;73748
14,387;73721
14,389;73732
14,391;73748
14,393;73748
14,395;73732
14,397;73735
14,399;73736
14,401;73748
14,403;73748
14,405;73727
14,407;73746
14,409;73727
14,411;73744
14,413;73744
14,415;73746
14,417;73746
14,419;73741
14,421;73755
14,423;73755
14,425;73750
14,427;73752
14,429;73735
14,431;73747
14,433;73747
14,435;73750
14,437;73755
14,439;73746
14,441;73764
14,443;73764
14,445;73766
14,447;73753
14,449;73752
14,451;73762
14,453;73762
14,455;73766
14,457;73762
14,459;73764
14,461;73770
14,463;73770
14,465;73775
14,467;73766
14,469;73779
14,471;73766
14,473;73766
14,475;73769
14,477;73772
14,479;73785
14,481;73785
14,483;73777
14,485;73782
14,487;73787
14,489;73780
14,491;73780
14,493;73779
14,495;73768
14,497;73771
14,499;73778
14,501;73778
14,503;73766
14,505;73786
14,507;73785
14,509;73785
14,511;73785
14,513;73810
14,515;73780
14,517;73777
14,519;73786
14,521;73786
14,523;73790
14,525;73791
14,527;73787
14,529;73789
14,531;73789
14,533;73799
14,535;73796
14,537;73780
14,539;73797
14,541;73797
14,543;73796
14,545;73794
14,547;73793
14,549;73796
14,551;73796
14,553;73788
14,555;73794
14,557;73801
14,559;73799
14,561;73799
14,563;73790
14,565;73803
14,567;73818
14,569;73810
14,571;73810
14,573;73803
14,575;73808
14,577;73809
14,579;73809
14,581;73806
14,583;73812
14,585;73801
14,587;73805
14,589;73805
14,591;73809
14,593;73810
14,595;73801
14,597;73824
14,599;73824
14,601;73814
14,603;73815
14,605;73808
14,607;73817
14,609;73817
14,611;73825
14,613;73819
14,615;73814
14,617;73821
14,619;73821
14,621;73827
14,623;73814
14,625;73813
14,627;73826
14,629;73826
14,631;73834
14,633;73830
14,635;73822
14,637;73832
14,639;73832
14,641;73837
14,643;73826
14,645;73848
14,647;73838
14,649;73838
14,651;73831
14,653;73849
14,655;73850
14,657;73845
14,659;73845
14,661;73853
14,663;73838
14,665;73860
14,667;73860
14,669;73835
14,671;73854
14,673;73851
14,675;73863
14,677;73863
14,679;73846
14,681;73859
14,683;73859
14,685;73842
14,687;73842
14,689;73855
14,691;73861
14,693;73851
14,695;73843
14,697;73843
14,699;73861
14,701;73856
14,703;73839
14,705;73845
14,707;73845
14,709;73853
14,711;73844
14,713;73843
14,715;73833
14,717;73833
14,719;73833
14,721;73822
14,723;73792
14,725;73798
14,727;73798
14,729;73792
14,731;73776
14,733;73755
14,735;73747
14,737;73747
14,739;73752
14,741;73718
14,743;73716
14,745;73703
14,747;73703
14,749;73694
14,751;73681
14,753;73676
14,755;73676
14,757;73652
14,759;73628
14,761;73622
14,763;73625
14,765;73625
14,767;73609
14,769;73602
14,771;73590
14,773;73602
14,775;73602
14,777;73595
14,779;73591
14,781;73571
14,783;73568
14,785;73568
14,787;73578
14,789;73562
14,791;73556
14,793;73562
14,795;73562
14,797;73568
14,799;73563
14,801;73547
14,803;73563
14,805;73563
14,807;73552
14,809;73555
14,811;73559
14,813;73564
14,815;73564
14,817;73569
14,819;73568
14,821;73583
14,823;73562
14,825;73562
14,827;73558
14,829;73569
14,831;73575
14,833;73574
14,835;73574
14,837;73577
14,839;73586
14,841;73584
14,843;73584
14,845;73590
14,847;73578
14,849;73581
14,851;73591
14,853;73591
14,855;73569
14,857;73585
14,859;73577
14,861;73583
14,863;73583
14,865;73593
14,867;73594
14,869;73582
14,871;73596
14,873;73596
14,875;73600
14,877;73598
14,879;73592
14,881;73595
14,883;73595
14,885;73600
14,887;73602
14,889;73594
14,891;73603
14,893;73603
14,895;73600
14,897;73610
14,899;73587
14,901;73600
14,903;73600
14,905;73607
14,907;73606
14,909;73605
14,911;73610
14,913;73610
14,915;73603
14,917;73605
14,919;73605
14,921;73605
14,923;73605
14,925;73589
14,927;73606
14,929;73613
14,931;73613
14,933;73610
14,935;73614
14,937;73616
14,939;73618
14,941;73618
14,943;73618
14,945;73613
14,947;73621
14,949;73628
14,951;73628
14,953;73624
14,955;73633
14,957;73621
14,959;73629
14,961;73629
14,963;73662
14,965;73634
14,967;73628
14,969;73630
14,971;73630
14,973;73637
14,975;73637
14,977;73631
14,979;73642
14,981;73642
14,983;73636
14,985;73632
14,987;73635
14,989;73645
14,991;73645
14,993;73641
14,995;73637
14,997;73648
14,999;73655
15,001;73655
15,003;73639
15,005;73645
15,007;73639
15,009;73650
15,011;73650
15,013;73639
15,015;73647
15,017;73654
15,019;73654
15,021;73644
15,023;73652
15,025;73644
15,027;73651
15,029;73651
15,031;73651
15,033;73651
15,035;73649
15,037;73655
15,039;73655
15,041;73656
15,043;73657
15,045;73657
15,047;73653
15,049;73653
15,051;73639
15,053;73649
15,055;73647
15,057;73650
15,059;73650
15,061;73649
15,063;73646
15,065;73654
15,067;73643
15,069;73643
15,071;73661
15,073;73655
15,075;73645
15,077;73658
15,079;73658
15,081;73655
15,083;73663
15,085;73656
15,087;73658
15,089;73658
15,091;73658
15,093;73651
15,095;73657
15,097;73658
15,099;73658
15,101;73649
15,103;73651
15,105;73657
15,107;73654
15,109;73654
15,111;73644
15,113;73664
15,115;73664
15,117;73664
15,119;73660
15,121;73683
15,123;73666
15,125;73675
15,127;73675
15,129;73680
15,131;73672
15,133;73663
15,135;73664
15,137;73664
15,139;73668
15,141;73678
15,143;73671
15,145;73670
15,147;73670
15,149;73678
15,151;73688
15,153;73676
15,155;73676
15,157;73676
15,159;73691
15,161;73693
15,163;73692
15,165;73701
15,167;73701
15,169;73692
15,171;73711
15,173;73697
15,175;73710
15,177;73710
15,179;73698
15,181;73702
15,183;73700
15,185;73714
15,187;73714
15,189;73694
15,191;73719
15,193;73699
15,195;73693
15,197;73693
15,199;73710
15,201;73710
15,203;73719
15,205;73719
15,207;73718
15,209;73705
15,211;73718
15,213;73710
15,215;73710
15,217;73713
15,219;73715
15,221;73721
15,223;73727
15,225;73727
15,227;73725
15,229;73731
15,231;73718
15,233;73728
15,235;73728
15,237;73728
15,239;73732
15,241;73718
15,243;73737
15,245;73737
15,247;73738
15,249;73733
15,251;73733
15,253;73757
15,255;73757
15,257;73733
15,259;73729
15,261;73726
15,263;73740
15,265;73740
15,267;73747
15,269;73754
15,271;73747
15,273;73742
15,275;73742
15,277;73739
15,279;73744
15,281;73741
15,283;73755
15,285;73755
15,287;73744
15,289;73752
15,291;73741
15,293;73741
15,295;73743
15,297;73752
15,299;73742
15,301;73751
15,303;73751
15,305;73730
15,307;73745
15,309;73754
15,311;73762
15,313;73762
15,315;73750
15,317;73766
15,319;73765
15,321;73755
15,323;73755
15,325;73765
15,327;73762
15,329;73763
15,331;73757
15,333;73757
15,335;73777
15,337;73774
15,339;73761
15,341;73770
15,343;73770
15,345;73761
15,347;73779
15,349;73761
15,351;73774
15,353;73774
15,355;73773
15,357;73779
15,359;73759
15,361;73786
15,363;73786
15,365;73781
15,367;73794
15,369;73793
15,371;73776
15,373;73776
15,375;73789
15,377;73793
15,379;73796
15,381;73795
15,383;73795
15,385;73795
15,387;73797
15,389;73806
15,391;73806
15,393;73791
15,395;73797
15,397;73794
15,399;73802
15,401;73802
15,403;73793
15,405;73785
15,407;73788
15,409;73792
15,411;73792
15,413;73812
15,415;73800
15,417;73795
15,419;73788
15,421;73788
15,423;73793
15,425;73810
15,427;73805
15,429;73809
15,431;73809
15,433;73812
15,435;73809
15,437;73798
15,439;73822
15,441;73822
15,443;73823
15,445;73830
15,447;73807
15,449;73833
15,451;73833
15,453;73824
15,455;73831
15,457;73829
15,459;73831
15,461;73831
15,463;73809
15,465;73835
15,467;73838
15,469;73832
15,471;73832
15,473;73833
15,475;73832
15,477;73843
15,479;73843
15,481;73832
15,483;73837
15,485;73814
15,487;73824
15,489;73824
15,491;73818
15,493;73806
15,495;73793
15,497;73794
15,499;73794
15,501;73789
15,503;73786
15,505;73764
15,507;73750
15,509;73750
15,511;73747
15,513;73725
15,515;73704
15,517;73709
15,519;73709
15,521;73706
15,523;73703
15,525;73674
15,527;73672
15,529;73672
15,531;73662
15,533;73642
15,535;73634
15,537;73619
15,539;73619
15,541;73615
15,543;73613
15,545;73606
15,547;73592
15,549;73592
15,551;73590
15,553;73582
15,555;73591
15,557;73580
15,559;73580
15,561;73569
15,563;73581
15,565;73562
15,567;73562
15,569;73569
15,571;73583
15,573;73562
15,575;73554
15,577;73554
15,579;73568
15,581;73557
15,583;73559
15,585;73540
15,587;73540
15,589;73552
15,591;73555
15,593;73544
15,595;73546
15,597;73546
15,599;73555
15,601;73559
15,603;73554
15,605;73554
15,607;73554
15,609;73563
15,611;73568
15,613;73559
15,615;73563
15,617;73563
15,619;73569
15,621;73559
15,623;73564
15,625;73562
15,627;73562
15,629;73577
15,631;73573
15,633;73577
15,635;73574
15,637;73574
15,639;73578
15,641;73572
15,643;73581
15,645;73578
15,647;73578
15,649;73573
15,651;73581
15,653;73587
15,655;73587
15,657;73575
15,659;73592
15,661;73581
15,663;73601
15,665;73601
15,667;73595
15,669;73591
15,671;73587
15,673;73599
15,675;73599
15,677;73599
15,679;73599
15,681;73596
15,683;73597
15,685;73597
15,687;73599
15,689;73596
15,691;73602
15,693;73599
15,695;73599
15,697;73603
15,699;73594
15,701;73585
15,703;73611
15,705;73611
15,707;73599
15,709;73591
15,711;73589
15,713;73597
15,715;73597
15,717;73605
15,719;73615
15,721;73608
15,723;73606
15,725;73606
15,727;73614
15,729;73642
15,731;73616
15,733;73617
15,735;73617
15,737;73627
15,739;73614
15,741;73641
15,743;73629
15,745;73629
15,747;73624
15,749;73633
15,751;73633
15,753;73633
15,755;73606
15,757;73633
15,759;73632
15,761;73643
15,763;73643
15,765;73649
15,767;73642
15,769;73635
15,771;73639
15,773;73639
15,775;73638
15,777;73652
15,779;73640
15,781;73639
15,783;73639
15,785;73636
15,787;73654
15,789;73640
15,791;73636
15,793;73636
15,795;73640
15,797;73633
15,799;73633
15,801;73651
15,803;73651
15,805;73651
15,807;73657
15,809;73646
15,811;73653
15,813;73653
15,815;73653
15,817;73660
15,819;73654
15,821;73662
15,823;73662
15,825;73660
15,827;73680
15,829;73663
15,831;73657
15,833;73657
15,835;73669
15,837;73668
15,839;73680
15,841;73680
15,843;73660
15,845;73657
15,847;73656
15,849;73680
15,851;73680
15,853;73670
15,855;73671
15,857;73654
15,859;73651
15,861;73651
15,863;73691
15,865;73663
15,867;73667
15,869;73674
15,871;73674
15,873;73655
15,875;73668
15,877;73665
15,879;73670
15,881;73670
15,883;73666
15,885;73669
15,887;73659
15,889;73666
15,891;73666
15,893;73655
15,895;73676
15,897;73664
15,899;73664
15,901;73664
15,903;73668
15,905;73689
15,907;73683
15,909;73680
15,911;73680
15,913;73657
15,915;73683
15,917;73691
15,919;73684
15,921;73684
15,923;73689
15,925;73687
15,927;73708
15,929;73708
15,931;73702
15,933;73706
15,935;73691
15,937;73696
15,939;73696
15,941;73704
15,943;73704
15,945;73702
15,947;73705
15,949;73705
15,951;73701
15,953;73718
15,955;73705
15,957;73717
15,959;73717
15,961;73716
15,963;73714
15,965;73710
15,967;73724
15,969;73724
15,971;73725
15,973;73721
15,975;73726
15,977;73723
15,979;73723
15,981;73722
15,983;73722
15,985;73725
15,987;73732
15,989;73732
15,991;73730
15,993;73726
15,995;73736
15,997;73731
15,999;73731
16,001;73739
16,003;73743
16,005;73746
16,007;73738
16,009;73738
16,011;73738
16,013;73742
16,015;73747
16,017;73747
16,019;73750
16,021;73771
16,023;73745
16,025;73747
16,027;73747
16,029;73758
16,031;73768
16,033;73746
16,035;73754
16,037;73754
16,039;73761
16,041;73754
16,043;73760
16,045;73748
16,047;73748
16,049;73757
16,051;73766
16,053;73754
16,055;73766
16,057;73766
16,059;73767
16,061;73763
16,063;73755
16,065;73764
16,067;73764
16,069;73764
16,071;73765
16,073;73769
16,075;73773
16,077;73773
16,079;73781
16,081;73788
16,083;73781
16,085;73766
16,087;73766
16,089;73780
16,091;73773
16,093;73787
16,095;73777
16,097;73777
16,099;73778
16,101;73773
16,103;73784
16,105;73784
16,107;73774
16,109;73777
16,111;73787
16,113;73791
16,115;73791
16,117;73783
16,119;73785
16,121;73787
16,123;73798
16,125;73798
16,127;73795
16,129;73779
16,131;73789
16,133;73797
16,135;73797
16,137;73795
16,139;73812
16,141;73796
16,143;73806
16,145;73806
16,147;73802
16,149;73809
16,151;73792
16,153;73823
16,155;73823
16,157;73798
16,159;73822
16,161;73823
16,163;73813
16,165;73813
16,167;73825
16,169;73819
16,171;73833
16,173;73816
16,175;73816
16,177;73819
16,179;73819
16,181;73830
16,183;73818
16,185;73818
16,187;73829
16,189;73821
16,191;73834
16,193;73834
16,195;73818
16,197;73823
16,199;73817
16,201;73822
16,203;73822
16,205;73810
16,207;73828
16,209;73829
16,211;73823
16,213;73823
16,215;73819
16,217;73820
16,219;73820
16,221;73828
16,223;73828
16,225;73837
16,227;73839
16,229;73839
16,231;73838
16,233;73838
16,235;73839
16,237;73850
16,239;73834
16,241;73851
16,243;73851
16,245;73832
16,247;73848
16,249;73833
16,251;73848
16,253;73848
16,255;73844
16,257;73851
16,259;73850
16,261;73860
16,263;73860
16,265;73853
16,267;73856
16,269;73866
16,271;73872
16,273;73872
16,275;73877
16,277;73859
16,279;73869
16,281;73869
16,283;73858
16,285;73867
16,287;73873
16,289;73875
16,291;73875
16,293;73871
16,295;73878
16,297;73876
16,299;73865
16,301;73865
16,303;73866
16,305;73865
16,307;73856
16,309;73853
16,311;73853
16,313;73867
16,315;73845
16,317;73833
16,319;73825
16,321;73825
16,323;73821
16,325;73823
16,327;73780
16,329;73799
16,331;73799
16,333;73770
16,335;73762
16,337;73735
16,339;73734
16,341;73734
16,343;73708
16,345;73711
16,347;73688
16,349;73676
16,351;73676
16,353;73680
16,355;73644
16,357;73659
16,359;73637
16,361;73637
16,363;73618
16,365;73624
16,367;73614
16,369;73614
16,371;73607
16,373;73599
16,375;73586
16,377;73589
16,379;73589
16,381;73584
16,383;73582
16,385;73572
16,387;73581
16,389;73581
16,391;73576
16,393;73576
16,395;73570
16,397;73568
16,399;73568
16,401;73572
16,403;73555
16,405;73551
16,407;73568
16,409;73568
16,411;73554
16,413;73557
16,415;73550
16,417;73558
16,419;73558
16,421;73570
16,423;73555
16,425;73559
16,427;73575
16,429;73575
16,431;73568
16,433;73571
16,435;73578
16,437;73576
16,439;73576
16,441;73573
16,443;73586
16,445;73590
16,447;73572
16,449;73572
16,451;73578
16,453;73581
16,455;73585
16,457;73585
16,459;73574
16,461;73585
16,463;73587
16,465;73584
16,467;73584
16,469;73601
16,471;73590
16,473;73587
16,475;73592
16,477;73592
16,479;73597
16,481;73610
16,483;73593
16,485;73587
16,487;73587
16,489;73611
16,491;73604
16,493;73608
16,495;73592
16,497;73592
16,499;73617
16,501;73600
16,503;73592
16,505;73601
16,507;73601
16,509;73608
16,511;73606
16,513;73597
16,515;73614
16,517;73614
16,519;73605
16,521;73623
16,523;73605
16,525;73614
16,527;73614
16,529;73617
16,531;73609
16,533;73619
16,535;73618
16,537;73618
16,539;73618
16,541;73617
16,543;73612
16,545;73612
16,547;73617
16,549;73618
16,551;73617
16,553;73627
16,555;73627
16,557;73622
16,559;73627
16,561;73620
16,563;73631
16,565;73631
16,567;73630
16,569;73632
16,571;73629
16,573;73641
16,575;73641
16,577;73648
16,579;73647
16,581;73641
16,583;73643
16,585;73643
16,587;73653
16,589;73648
16,591;73639
16,593;73653
16,595;73653
16,597;73646
16,599;73655
16,601;73643
16,603;73656
16,605;73656
16,607;73656
16,609;73661
16,611;73657
16,613;73654
16,615;73654
16,617;73660
16,619;73652
16,621;73661
16,623;73671
16,625;73671
16,627;73655
16,629;73653
16,631;73669
16,633;73669
16,635;73659
16,637;73662
16,639;73668
16,641;73670
16,643;73670
16,645;73666
16,647;73668
16,649;73669
16,651;73659
16,653;73659
16,655;73654
16,657;73667
16,659;73659
16,661;73670
16,663;73670
16,665;73672
16,667;73665
16,669;73656
16,671;73673
16,673;73673
16,675;73669
16,677;73661
16,679;73664
16,681;73665
16,683;73665
16,685;73673
16,687;73667
16,689;73659
16,691;73674
16,693;73674
16,695;73668
16,697;73678
16,699;73676
16,701;73673
16,703;73673
16,705;73666
16,707;73674
16,709;73675
16,711;73677
16,713;73677
16,715;73675
16,717;73672
16,719;73682
16,721;73682
16,723;73681
16,725;73682
16,727;73683
16,729;73698
16,731;73698
16,733;73685
16,735;73694
16,737;73692
16,739;73696
16,741;73696
16,743;73694
16,745;73698
16,747;73694
16,749;73698
16,751;73698
16,753;73700
16,755;73707
16,757;73695
16,759;73707
16,761;73707
16,763;73724
16,765;73725
16,767;73713
16,769;73713
16,771;73713
16,773;73710
16,775;73710
16,777;73717
16,779;73726
16,781;73726
16,783;73717
16,785;73723
16,787;73712
16,789;73721
16,791;73721
16,793;73741
16,795;73725
16,797;73731
16,799;73723
16,801;73723
16,803;73726
16,805;73733
16,807;73745
16,809;73745
16,811;73739
16,813;73731
16,815;73733
16,817;73753
16,819;73753
16,821;73740
16,823;73744
16,825;73755
16,827;73751
16,829;73751
16,831;73742
16,833;73747
16,835;73743
16,837;73759
16,839;73759
16,841;73769
16,843;73746
16,845;73754
16,847;73756
16,849;73756
16,851;73757
16,853;73758
16,855;73754
16,857;73748
16,859;73748
16,861;73755
16,863;73766
16,865;73752
16,867;73768
16,869;73768
16,871;73761
16,873;73767
16,875;73781
16,877;73773
16,879;73773
16,881;73770
16,883;73786
16,885;73791
16,887;73785
16,889;73785
16,891;73785
16,893;73773
16,895;73801
16,897;73774
16,899;73774
16,901;73781
16,903;73783
16,905;73782
16,907;73782
16,909;73779
16,911;73778
16,913;73788
16,915;73775
16,917;73775
16,919;73788
16,921;73796
16,923;73792
16,925;73798
16,927;73798
16,929;73797
16,931;73797
16,933;73788
16,935;73789
16,937;73789
16,939;73792
16,941;73810
16,943;73794
16,945;73788
16,947;73788
16,949;73815
16,951;73808
16,953;73802
16,955;73805
16,957;73805
16,959;73811
16,961;73810
16,963;73807
16,965;73817
16,967;73817
16,969;73810
16,971;73805
16,973;73808
16,975;73810
16,977;73810
16,979;73809
16,981;73811
16,983;73814
16,985;73823
16,987;73823
16,989;73825
16,991;73818
16,993;73821
16,995;73821
16,997;73823
16,999;73822
17,001;73811
17,003;73825
17,005;73825
17,007;73819
17,009;73823
17,011;73821
17,013;73821
17,015;73821
17,017;73831
17,019;73828
17,021;73819
17,023;73833
17,025;73833
17,027;73839
17,029;73830
17,031;73828
17,033;73838
17,035;73838
17,037;73841
17,039;73842
17,041;73836
17,043;73840
17,045;73840
17,047;73838
17,049;73853
17,051;73844
17,053;73874
17,055;73874
17,057;73853
17,059;73845
17,061;73847
17,063;73849
17,065;73849
17,067;73864
17,069;73849
17,071;73857
17,073;73870
17,075;73870
17,077;73858
17,079;73840
17,081;73877
17,083;73877
17,085;73855
17,087;73863
17,089;73861
17,091;73872
17,093;73872
17,095;73867
17,097;73876
17,099;73862
17,101;73860
17,103;73860
17,105;73874
17,107;73873
17,109;73865
17,111;73877
17,113;73877
17,115;73883
17,117;73871
17,119;73867
17,121;73883
17,123;73883
17,125;73877
17,127;73876
17,129;73869
17,131;73894
17,133;73894
17,135;73889
17,137;73886
17,139;73876
17,141;73909
17,143;73909
17,145;73886
17,147;73890
17,149;73903
17,151;73892
17,153;73892
17,155;73887
17,157;73892
17,159;73896
17,161;73882
17,163;73882
17,165;73883
17,167;73879
17,169;73872
17,171;73872
17,173;73852
17,175;73837
17,177;73827
17,179;73821
17,181;73821
17,183;73807
17,185;73787
17,187;73775
17,189;73766
17,191;73766
17,193;73736
17,195;73730
17,197;73715
17,199;73699
17,201;73699
17,203;73684
17,205;73676
17,207;73656
17,209;73649
17,211;73649
17,213;73647
17,215;73622
17,217;73620
17,219;73605
17,221;73605
17,223;73621
17,225;73606
17,227;73594
17,229;73594
17,231;73594
17,233;73600
17,235;73594
17,237;73577
17,239;73595
17,241;73595
17,243;73585
17,245;73582
17,247;73576
17,249;73580
17,251;73580
17,253;73579
17,255;73576
17,257;73576
17,259;73576
17,261;73574
17,263;73571
17,265;73571
17,267;73582
17,269;73582
17,271;73576
17,273;73570
17,275;73573
17,277;73575
17,279;73575
17,281;73584
17,283;73579
17,285;73582
17,287;73588
17,289;73588
17,291;73601
17,293;73582
17,295;73588
17,297;73593
17,299;73593
17,301;73595
17,303;73592
17,305;73583
17,307;73599
17,309;73599
17,311;73592
17,313;73588
17,315;73594
17,317;73603
17,319;73603
17,321;73602
17,323;73597
17,325;73607
17,327;73612
17,329;73612
17,331;73616
17,333;73620
17,335;73616
17,337;73617
17,339;73617
17,341;73625
17,343;73620
17,345;73636
17,347;73636
17,349;73625
17,351;73620
17,353;73626
17,355;73630
17,357;73630
17,359;73634
17,361;73625
17,363;73625
17,365;73634
17,367;73634
17,369;73624
17,371;73619
17,373;73631
17,375;73628
17,377;73628
17,379;73627
17,381;73626
17,383;73614
17,385;73622
17,387;73622
17,389;73635
17,391;73642
17,393;73633
17,395;73612
17,397;73612
17,399;73638
17,401;73641
17,403;73631
17,405;73638
17,407;73638
17,409;73643
17,411;73641
17,413;73632
17,415;73652
17,417;73652
17,419;73644
17,421;73656
17,423;73663
17,425;73650
17,427;73650
17,429;73655
17,431;73655
17,433;73668
17,435;73665
17,437;73665
17,439;73668
17,441;73659
17,443;73670
17,445;73670
17,447;73663
17,449;73665
17,451;73664
17,453;73678
17,455;73678
17,457;73670
17,459;73669
17,461;73665
17,463;73673
17,465;73673
17,467;73671
17,469;73675
17,471;73667
17,473;73679
17,475;73679
17,477;73674
17,479;73678
17,481;73678
17,483;73683
17,485;73683
17,487;73692
17,489;73658
17,491;73680
17,493;73682
17,495;73682
17,497;73666
17,499;73679
17,501;73665
17,503;73691
17,505;73691
17,507;73676
17,509;73666
17,511;73668
17,513;73678
17,515;73678
17,517;73679
17,519;73671
17,521;73685
17,523;73668
17,525;73668
17,527;73683
17,529;73675
17,531;73694
17,533;73694
17,535;73679
17,537;73686
17,539;73676
17,541;73676
17,543;73676
17,545;73686
17,547;73694
17,549;73679
17,551;73679
17,553;73679
17,555;73657
17,557;73681
17,559;73683
17,561;73702
17,563;73702
17,565;73694
17,567;73689
17,569;73687
17,571;73691
17,573;73691
17,575;73690
17,577;73693
17,579;73692
17,581;73695
17,583;73695
17,585;73704
17,587;73701
17,589;73691
17,591;73699
17,593;73699
17,595;73707
17,597;73708
17,599;73709
17,601;73710
17,603;73710
17,605;73707
17,607;73718
17,609;73706
17,611;73717
17,613;73717
17,615;73720
17,617;73723
17,619;73735
17,621;73718
17,623;73718
17,625;73718
17,627;73725
17,629;73736
17,631;73736
17,633;73728
17,635;73734
17,637;73732
17,639;73733
17,641;73733
17,643;73744
17,645;73737
17,647;73737
17,649;73737
17,651;73737
17,653;73745
17,655;73746
17,657;73742
17,659;73752
17,661;73752
17,663;73777
17,665;73751
17,667;73736
17,669;73741
17,671;73741
17,673;73751
17,675;73761
17,677;73750
17,679;73757
17,681;73757
17,683;73765
17,685;73771
17,687;73764
17,689;73767
17,691;73767
17,693;73764
17,695;73764
17,697;73767
17,699;73776
17,701;73776
17,703;73759
17,705;73775
17,707;73778
17,709;73777
17,711;73777
17,713;73771
17,715;73773
17,717;73774
17,719;73774
17,721;73773
17,723;73777
17,725;73774
17,727;73783
17,729;73783
17,731;73782
17,733;73781
17,735;73784
17,737;73778
17,739;73778
17,741;73794
17,743;73797
17,745;73782
17,747;73792
17,749;73792
17,751;73802
17,753;73791
17,755;73786
17,757;73789
17,759;73789
17,761;73806
17,763;73800
17,765;73795
17,767;73802
17,769;73802
17,771;73815
17,773;73807
17,775;73797
17,777;73806
17,779;73806
17,781;73798
17,783;73813
17,785;73815
17,787;73809
17,789;73809
17,791;73811
17,793;73818
17,795;73823
17,797;73819
17,799;73819
17,801;73814
17,803;73824
17,805;73808
17,807;73808
17,809;73815
17,811;73810
17,813;73807
17,815;73818
17,817;73818
17,819;73814
17,821;73834
17,823;73807
17,825;73820
17,827;73820
17,829;73823
17,831;73820
17,833;73826
17,835;73825
17,837;73825
17,839;73831
17,841;73835
17,843;73830
17,845;73817
17,847;73817
17,849;73842
17,851;73841
17,853;73824
17,855;73835
17,857;73835
17,859;73834
17,861;73838
17,863;73842
17,865;73855
17,867;73855
17,869;73852
17,871;73847
17,873;73842
17,875;73841
17,877;73841
17,879;73854
17,881;73859
17,883;73854
17,885;73862
17,887;73862
17,889;73852
17,891;73861
17,893;73874
17,895;73874
17,897;73864
17,899;73863
17,901;73862
17,903;73870
17,905;73870
17,907;73882
17,909;73867
17,911;73849
17,913;73869
17,915;73869
17,917;73871
17,919;73866
17,921;73861
17,923;73870
17,925;73870
17,927;73868
17,929;73861
17,931;73871
17,933;73878
17,935;73878
17,937;73883
17,939;73884
17,941;73871
17,943;73883
17,945;73883
17,947;73887
17,949;73877
17,951;73882
17,953;73895
17,955;73895
17,957;73882
17,959;73880
17,961;73883
17,963;73889
17,965;73889
17,967;73886
17,969;73903
17,971;73905
17,973;73901
17,975;73901
17,977;73893
17,979;73902
17,981;73909
17,983;73902
17,985;73902
17,987;73907
17,989;73897
17,991;73908
17,993;73908
17,995;73893
17,997;73905
17,999;73898
18,001;73905
18,003;73905
18,005;73866
18,007;73868
18,009;73870
18,011;73865
18,013;73865
18,015;73854
18,017;73841
18,019;73826
18,021;73815
18,023;73815
18,025;73806
18,027;73779
18,029;73762
18,031;73765
18,033;73765
18,035;73752
18,037;73747
18,039;73716
18,041;73710
18,043;73710
18,045;73689
18,047;73684
18,049;73673
18,051;73663
18,053;73663
18,055;73657
18,057;73645
18,059;73651
18,061;73632
18,063;73632
18,065;73623
18,067;73618
18,069;73617
18,071;73608
18,073;73608
18,075;73601
18,077;73597
18,079;73593
18,081;73593
18,083;73597
18,085;73599
18,087;73593
18,089;73610
18,091;73610
18,093;73602
18,095;73591
18,097;73582
18,099;73601
18,101;73601
18,103;73589
18,105;73583
18,107;73573
18,109;73590
18,111;73590
18,113;73599
18,115;73597
18,117;73581
18,119;73589
18,121;73589
18,123;73588
18,125;73594
18,127;73582
18,129;73595
18,131;73595
18,133;73595
18,135;73606
18,137;73592
18,139;73598
18,141;73598
18,143;73608
18,145;73617
18,147;73618
18,149;73621
18,151;73621
18,153;73620
18,155;73622
18,157;73636
18,159;73621
18,161;73621
18,163;73600
18,165;73637
18,167;73627
18,169;73627
18,171;73645
18,173;73638
18,175;73635
18,177;73643
18,179;73643
18,181;73628
18,183;73639
18,185;73636
18,187;73648
18,189;73648
18,191;73647
18,193;73644
18,195;73650
18,197;73651
18,199;73651
18,201;73657
18,203;73640
18,205;73642
18,207;73653
18,209;73653
18,211;73657
18,213;73646
18,215;73645
18,217;73647
18,219;73647
18,221;73647
18,223;73652
18,225;73652
18,227;73653
18,229;73653
18,231;73656
18,233;73664
18,235;73659
18,237;73676
18,239;73676
18,241;73665
18,243;73670
18,245;73681
18,247;73683
18,249;73683
18,251;73673
18,253;73676
18,255;73688
18,257;73679
18,259;73679
18,261;73690
18,263;73693
18,265;73684
18,267;73684
18,269;73690
18,271;73708
18,273;73695
18,275;73700
18,277;73700
18,279;73699
18,281;73700
18,283;73689
18,285;73699
18,287;73699
18,289;73702
18,291;73704
18,293;73696
18,295;73693
18,297;73693
18,299;73690
18,301;73705
18,303;73696
18,305;73699
18,307;73699
18,309;73712
18,311;73706
18,313;73698
18,315;73706
18,317;73706
18,319;73703
18,321;73692
18,323;73712
18,325;73705
18,327;73705
18,329;73708
18,331;73707
18,333;73708
18,335;73705
18,337;73705
18,339;73703
18,341;73705
18,343;73722
18,345;73711
18,347;73711
18,349;73706
18,351;73707
18,353;73693
18,355;73693
18,357;73714
18,359;73707
18,361;73701
18,363;73709
18,365;73709
18,367;73713
18,369;73710
18,371;73709
18,373;73706
18,375;73706
18,377;73717
18,379;73712
18,381;73711
