Time (s);Pleth
0,79;73689
0,792;73689
0,794;73690
0,796;73685
0,798;73675
0,8;73695
0,802;73695
0,804;73697
0,806;73683
0,808;73693
0,81;73699
0,812;73699
0,814;73690
0,816;73697
0,818;73693
0,82;73700
0,822;73700
0,824;73693
0,826;73708
0,828;73702
0,83;73681
0,832;73681
0,834;73709
0,836;73706
0,838;73712
0,84;73703
0,842;73703
0,844;73709
0,846;73713
0,848;73729
0,85;73729
0,852;73714
0,854;73717
0,856;73719
0,858;73709
0,86;73709
0,862;73714
0,864;73713
0,866;73710
0,868;73707
0,87;73707
0,872;73703
0,874;73691
0,876;73666
0,878;73677
0,88;73677
0,882;73663
0,884;73656
0,886;73629
0,888;73645
0,89;73645
0,892;73613
0,894;73599
0,896;73577
0,898;73576
0,9;73576
0,902;73566
0,904;73548
0,906;73538
0,908;73546
0,91;73546
0,912;73526
0,914;73518
0,916;73507
0,918;73500
0,92;73500
0,922;73497
0,924;73494
0,926;73485
0,928;73480
0,93;73480
0,932;73476
0,934;73459
0,936;73470
0,938;73470
0,94;73480
0,942;73462
0,944;73457
0,946;73445
0,948;73445
0,95;73453
0,952;73440
0,954;73446
0,956;73444
0,958;73444
0,96;73441
0,962;73445
0,964;73429
0,966;73449
0,968;73449
0,97;73450
0,972;73422
0,974;73438
0,976;73448
0,978;73448
0,98;73451
0,982;73437
0,984;73438
0,986;73454
0,988;73454
0,99;73444
0,992;73449
0,994;73444
0,996;73447
0,998;73447
1;73450
1,002;73453
1,004;73446
1,006;73455
1,008;73455
1,01;73473
1,012;73457
1,014;73466
1,016;73468
1,018;73468
1,02;73466
1,022;73454
1,024;73462
1,026;73462
1,028;73460
1,03;73470
1,032;73469
1,034;73478
1,036;73478
1,038;73467
1,04;73457
1,042;73475
1,044;73482
1,046;73482
1,048;73473
1,05;73485
1,052;73459
1,054;73485
1,056;73485
1,058;73488
1,06;73474
1,062;73468
1,064;73487
1,066;73487
1,068;73471
1,07;73471
1,072;73468
1,074;73480
1,076;73480
1,078;73478
1,08;73480
1,082;73469
1,084;73488
1,086;73488
1,088;73473
1,09;73470
1,092;73473
1,094;73486
1,096;73486
1,098;73500
1,1;73487
1,102;73491
1,104;73485
1,106;73485
1,108;73495
1,11;73485
1,112;73492
1,114;73479
1,116;73479
1,118;73481
1,12;73503
1,122;73473
1,124;73473
1,126;73491
1,128;73499
1,13;73498
1,132;73504
1,134;73504
1,136;73492
1,138;73501
1,14;73503
1,142;73505
1,144;73505
1,146;73505
1,148;73518
1,15;73516
1,152;73516
1,154;73516
1,156;73512
1,158;73519
1,16;73506
1,162;73523
1,164;73523
1,166;73510
1,168;73525
1,17;73506
1,172;73527
1,174;73527
1,176;73520
1,178;73521
1,18;73528
1,182;73526
1,184;73526
1,186;73520
1,188;73528
1,19;73524
1,192;73530
1,194;73530
1,196;73526
1,198;73523
1,2;73535
1,202;73532
1,204;73532
1,206;73536
1,208;73525
1,21;73536
1,212;73536
1,214;73534
1,216;73521
1,218;73516
1,22;73525
1,222;73525
1,224;73531
1,226;73542
1,228;73518
1,23;73539
1,232;73539
1,234;73526
1,236;73521
1,238;73513
1,24;73544
1,242;73544
1,244;73529
1,246;73534
1,248;73526
1,25;73540
1,252;73540
1,254;73542
1,256;73543
1,258;73534
1,26;73540
1,262;73540
1,264;73527
1,266;73529
1,268;73524
1,27;73532
1,272;73532
1,274;73533
1,276;73522
1,278;73539
1,28;73519
1,282;73519
1,284;73539
1,286;73538
1,288;73550
1,29;73547
1,292;73547
1,294;73550
1,296;73536
1,298;73555
1,3;73555
1,302;73545
1,304;73545
1,306;73552
1,308;73547
1,31;73547
1,312;73553
1,314;73553
1,316;73554
1,318;73549
1,32;73549
1,322;73553
1,324;73576
1,326;73559
1,328;73567
1,33;73567
1,332;73561
1,334;73564
1,336;73564
1,338;73570
1,34;73570
1,342;73575
1,344;73577
1,346;73570
1,348;73580
1,35;73580
1,352;73568
1,354;73578
1,356;73586
1,358;73589
1,36;73589
1,362;73588
1,364;73577
1,366;73584
1,368;73583
1,37;73583
1,372;73589
1,374;73587
1,376;73593
1,378;73598
1,38;73598
1,382;73586
1,384;73595
1,386;73601
1,388;73601
1,39;73619
1,392;73597
1,394;73591
1,396;73605
1,398;73605
1,4;73601
1,402;73601
1,404;73605
1,406;73609
1,408;73609
1,41;73612
1,412;73603
1,414;73576
1,416;73603
1,418;73603
1,42;73608
1,422;73613
1,424;73614
1,426;73611
1,428;73611
1,43;73608
1,432;73614
1,434;73602
1,436;73619
1,438;73619
1,44;73598
1,442;73603
1,444;73620
1,446;73624
1,448;73624
1,45;73625
1,452;73628
1,454;73616
1,456;73621
1,458;73621
1,46;73628
1,462;73632
1,464;73631
1,466;73631
1,468;73631
1,47;73624
1,472;73643
1,474;73635
1,476;73632
1,478;73632
1,48;73620
1,482;73633
1,484;73630
1,486;73630
1,488;73641
1,49;73631
1,492;73632
1,494;73636
1,496;73636
1,498;73642
1,5;73638
1,502;73639
1,504;73650
1,506;73650
1,508;73644
1,51;73658
1,512;73643
1,514;73650
1,516;73650
1,518;73645
1,52;73636
1,522;73648
1,524;73652
1,526;73652
1,528;73652
1,53;73658
1,532;73635
1,534;73644
1,536;73644
1,538;73640
1,54;73653
1,542;73638
1,544;73639
1,546;73639
1,548;73680
1,55;73650
1,552;73654
1,554;73656
1,556;73656
1,558;73657
1,56;73668
1,562;73661
1,564;73680
1,566;73680
1,568;73668
1,57;73664
1,572;73666
1,574;73666
1,576;73669
1,578;73676
1,58;73683
1,582;73674
1,584;73674
1,586;73661
1,588;73663
1,59;73669
1,592;73671
1,594;73671
1,596;73664
1,598;73662
1,6;73668
1,602;73673
1,604;73673
1,606;73673
1,608;73678
1,61;73668
1,612;73683
1,614;73683
1,616;73675
1,618;73681
1,62;73666
1,622;73682
1,624;73682
1,626;73681
1,628;73687
1,63;73683
1,632;73692
1,634;73692
1,636;73693
1,638;73693
1,64;73691
1,642;73688
1,644;73688
1,646;73699
1,648;73684
1,65;73705
1,652;73694
1,654;73694
1,656;73692
1,658;73684
1,66;73707
1,662;73707
1,664;73696
1,666;73688
1,668;73695
1,67;73700
1,672;73700
1,674;73695
1,676;73701
1,678;73702
1,68;73715
1,682;73715
1,684;73697
1,686;73709
1,688;73699
1,69;73716
1,692;73716
1,694;73705
1,696;73711
1,698;73716
1,7;73711
1,702;73711
1,704;73718
1,706;73731
1,708;73717
1,71;73722
1,712;73722
1,714;73723
1,716;73712
1,718;73717
1,72;73724
1,722;73724
1,724;73717
1,726;73719
1,728;73715
1,73;73712
1,732;73712
1,734;73719
1,736;73717
1,738;73713
1,74;73698
1,742;73698
1,744;73694
1,746;73695
1,748;73700
1,75;73682
1,752;73682
1,754;73672
1,756;73654
1,758;73665
1,76;73665
1,762;73642
1,764;73623
1,766;73618
1,768;73605
1,77;73605
1,772;73589
1,774;73591
1,776;73557
1,778;73562
1,78;73562
1,782;73545
1,784;73535
1,786;73504
1,788;73517
1,79;73517
1,792;73494
1,794;73483
1,796;73465
1,798;73495
1,8;73495
1,802;73479
1,804;73460
1,806;73451
1,808;73462
1,81;73462
1,812;73460
1,814;73450
1,816;73438
1,818;73439
1,82;73439
1,822;73453
1,824;73435
1,826;73438
1,828;73431
1,83;73431
1,832;73424
1,834;73430
1,836;73437
1,838;73453
1,84;73453
1,842;73440
1,844;73435
1,846;73446
1,848;73446
1,85;73442
1,852;73442
1,854;73436
1,856;73450
1,858;73450
1,86;73449
1,862;73450
1,864;73443
1,866;73441
1,868;73441
1,87;73444
1,872;73440
1,874;73436
1,876;73449
1,878;73449
1,88;73437
1,882;73443
1,884;73437
1,886;73448
1,888;73448
1,89;73424
1,892;73453
1,894;73443
1,896;73450
1,898;73450
1,9;73458
1,902;73457
1,904;73440
1,906;73452
1,908;73452
1,91;73461
1,912;73463
1,914;73450
1,916;73461
1,918;73461
1,92;73457
1,922;73449
1,924;73463
1,926;73448
1,928;73448
1,93;73455
1,932;73464
1,934;73463
1,936;73463
1,938;73462
1,94;73439
1,942;73458
1,944;73449
1,946;73449
1,948;73452
1,95;73460
1,952;73456
1,954;73470
1,956;73470
1,958;73464
1,96;73461
1,962;73446
1,964;73464
1,966;73464
1,968;73454
1,97;73459
1,972;73455
1,974;73456
1,976;73456
1,978;73462
1,98;73466
1,982;73455
1,984;73460
1,986;73460
1,988;73476
1,99;73482
1,992;73456
1,994;73471
1,996;73471
1,998;73506
2;73474
2,002;73473
2,004;73471
2,006;73471
2,008;73482
2,01;73483
2,012;73499
2,014;73484
2,016;73484
2,018;73486
2,02;73496
2,022;73499
2,024;73499
2,026;73502
2,028;73496
2,03;73486
2,032;73495
2,034;73495
2,036;73500
2,038;73506
2,04;73498
2,042;73509
2,044;73509
2,046;73506
2,048;73498
2,05;73490
2,052;73493
2,054;73493
2,056;73492
2,058;73503
2,06;73500
2,062;73505
2,064;73505
2,066;73516
2,068;73505
2,07;73497
2,072;73512
2,074;73512
2,076;73511
2,078;73506
2,08;73497
2,082;73502
2,084;73502
2,086;73512
2,088;73502
2,09;73505
2,092;73519
2,094;73519
2,096;73499
2,098;73498
2,1;73515
2,102;73513
2,104;73513
2,106;73513
2,108;73517
2,11;73522
2,112;73522
2,114;73513
2,116;73509
2,118;73513
2,12;73507
2,122;73507
2,124;73517
2,126;73509
2,128;73510
2,13;73517
2,132;73517
2,134;73502
2,136;73522
2,138;73497
2,14;73509
2,142;73509
2,144;73502
2,146;73503
2,148;73512
2,15;73507
2,152;73507
2,154;73515
2,156;73533
2,158;73515
2,16;73512
2,162;73512
2,164;73528
2,166;73518
2,168;73518
2,17;73528
2,172;73528
2,174;73533
2,176;73531
2,178;73523
2,18;73526
2,182;73526
2,184;73535
2,186;73527
2,188;73535
2,19;73535
2,192;73535
2,194;73531
2,196;73548
2,198;73549
2,2;73545
2,202;73545
2,204;73537
2,206;73546
2,208;73555
2,21;73555
2,212;73554
2,214;73554
2,216;73555
2,218;73559
2,22;73559
2,222;73554
2,224;73554
2,226;73540
2,228;73557
2,23;73557
2,232;73568
2,234;73557
2,236;73559
2,238;73560
2,24;73560
2,242;73575
2,244;73577
2,246;73552
2,248;73569
2,25;73569
2,252;73561
2,254;73579
2,256;73568
2,258;73576
2,26;73576
2,262;73579
2,264;73587
2,266;73568
2,268;73580
2,27;73580
2,272;73571
2,274;73570
2,276;73579
2,278;73590
2,28;73590
2,282;73579
2,284;73597
2,286;73593
2,288;73605
2,29;73605
2,292;73586
2,294;73578
2,296;73592
2,298;73592
2,3;73586
2,302;73588
2,304;73603
2,306;73591
2,308;73591
2,31;73591
2,312;73595
2,314;73586
2,316;73589
2,318;73589
2,32;73598
2,322;73590
2,324;73599
2,326;73589
2,328;73589
2,33;73594
2,332;73596
2,334;73603
2,336;73598
2,338;73598
2,34;73594
2,342;73612
2,344;73606
2,346;73620
2,348;73620
2,35;73607
2,352;73613
2,354;73604
2,356;73620
2,358;73620
2,36;73609
2,362;73617
2,364;73610
2,366;73611
2,368;73611
2,37;73618
2,372;73609
2,374;73620
2,376;73627
2,378;73627
2,38;73616
2,382;73626
2,384;73636
2,386;73636
2,388;73616
2,39;73625
2,392;73617
2,394;73631
2,396;73631
2,398;73639
2,4;73635
2,402;73641
2,404;73614
2,406;73614
2,408;73630
2,41;73636
2,412;73618
2,414;73631
2,416;73631
2,418;73629
2,42;73648
2,422;73634
2,424;73634
2,426;73634
2,428;73638
2,43;73641
2,432;73638
2,434;73638
2,436;73638
2,438;73637
2,44;73652
2,442;73640
2,444;73647
2,446;73647
2,448;73656
2,45;73655
2,452;73651
2,454;73650
2,456;73650
2,458;73644
2,46;73652
2,462;73659
2,464;73663
2,466;73663
2,468;73658
2,47;73660
2,472;73665
2,474;73665
2,476;73662
2,478;73677
2,48;73669
2,482;73669
2,484;73669
2,486;73659
2,488;73671
2,49;73660
2,492;73659
2,494;73659
2,496;73676
2,498;73643
2,5;73671
2,502;73666
2,504;73666
2,506;73675
2,508;73668
2,51;73660
2,512;73668
2,514;73668
2,516;73680
2,518;73677
2,52;73677
2,522;73684
2,524;73684
2,526;73673
2,528;73671
2,53;73665
2,532;73678
2,534;73678
2,536;73669
2,538;73677
2,54;73678
2,542;73683
2,544;73683
2,546;73689
2,548;73686
2,55;73684
2,552;73696
2,554;73696
2,556;73688
2,558;73683
2,56;73692
2,562;73691
2,564;73691
2,566;73690
2,568;73700
2,57;73698
2,572;73698
2,574;73695
2,576;73698
2,578;73704
2,58;73712
2,582;73712
2,584;73701
2,586;73694
2,588;73685
2,59;73690
2,592;73690
2,594;73712
2,596;73706
2,598;73696
2,6;73693
2,602;73693
2,604;73716
2,606;73730
2,608;73711
2,61;73706
2,612;73706
2,614;73719
2,616;73722
2,618;73715
2,62;73721
2,622;73721
2,624;73713
2,626;73719
2,628;73713
2,63;73698
2,632;73698
2,634;73717
2,636;73710
2,638;73717
2,64;73719
2,642;73719
2,644;73729
2,646;73718
2,648;73738
2,65;73720
2,652;73720
2,654;73712
2,656;73708
2,658;73710
2,66;73710
2,662;73719
2,664;73701
2,666;73693
2,668;73697
2,67;73697
2,672;73682
2,674;73675
2,676;73658
2,678;73646
2,68;73646
2,682;73636
2,684;73610
2,686;73600
2,688;73588
2,69;73588
2,692;73576
2,694;73563
2,696;73556
2,698;73543
2,7;73543
2,702;73530
2,704;73514
2,706;73491
2,708;73489
2,71;73489
2,712;73483
2,714;73482
2,716;73468
2,718;73476
2,72;73476
2,722;73467
2,724;73449
2,726;73451
2,728;73451
2,73;73451
2,732;73451
2,734;73460
2,736;73453
2,738;73441
2,74;73441
2,742;73440
2,744;73441
2,746;73447
2,748;73428
2,75;73428
2,752;73445
2,754;73439
2,756;73436
2,758;73436
2,76;73441
2,762;73420
2,764;73438
2,766;73433
2,768;73433
2,77;73439
2,772;73437
2,774;73438
2,776;73435
2,778;73435
2,78;73427
2,782;73437
2,784;73433
2,786;73435
2,788;73435
2,79;73436
2,792;73448
2,794;73443
2,796;73440
2,798;73440
2,8;73443
2,802;73444
2,804;73427
2,806;73452
2,808;73452
2,81;73462
2,812;73450
2,814;73454
2,816;73452
2,818;73452
2,82;73451
2,822;73447
2,824;73449
2,826;73454
2,828;73454
2,83;73447
2,832;73457
2,834;73458
2,836;73453
2,838;73453
2,84;73459
2,842;73446
2,844;73454
2,846;73454
2,848;73452
2,85;73457
2,852;73450
2,854;73451
2,856;73451
2,858;73455
2,86;73456
2,862;73450
2,864;73450
2,866;73450
2,868;73460
2,87;73468
2,872;73452
2,874;73456
2,876;73456
2,878;73457
2,88;73447
2,882;73439
2,884;73470
2,886;73470
2,888;73453
2,89;73457
2,892;73438
2,894;73451
2,896;73451
2,898;73467
2,9;73464
2,902;73448
2,904;73468
2,906;73468
2,908;73462
2,91;73469
2,912;73453
2,914;73473
2,916;73473
2,918;73471
2,92;73478
2,922;73500
2,924;73467
2,926;73467
2,928;73481
2,93;73477
2,932;73479
2,934;73479
2,936;73481
2,938;73469
2,94;73464
2,942;73483
2,944;73483
2,946;73483
2,948;73462
2,95;73484
2,952;73488
2,954;73488
2,956;73493
2,958;73498
2,96;73492
2,962;73503
2,964;73503
2,966;73499
2,968;73502
2,97;73497
2,972;73502
2,974;73502
2,976;73498
2,978;73493
2,98;73485
2,982;73504
2,984;73504
2,986;73493
2,988;73497
2,99;73499
2,992;73499
2,994;73499
2,996;73506
2,998;73501
3;73495
3,002;73498
3,004;73498
3,006;73493
3,008;73499
3,01;73508
3,012;73509
3,014;73509
3,016;73502
3,018;73506
3,02;73506
3,022;73508
3,024;73508
3,026;73511
3,028;73499
3,03;73499
3,032;73499
3,034;73496
3,036;73505
3,038;73498
3,04;73500
3,042;73500
3,044;73503
3,046;73509
3,048;73501
3,05;73498
3,052;73498
3,054;73506
3,056;73528
3,058;73517
3,06;73509
3,062;73509
3,064;73508
3,066;73519
3,068;73503
3,07;73518
3,072;73518
3,074;73513
3,076;73513
3,078;73504
3,08;73515
3,082;73515
3,084;73519
3,086;73527
3,088;73539
3,09;73519
3,092;73519
3,094;73524
3,096;73521
3,098;73542
3,1;73540
3,102;73540
3,104;73530
3,106;73525
3,108;73530
3,11;73544
3,112;73544
3,114;73540
3,116;73531
3,118;73543
3,12;73543
3,122;73540
3,124;73544
3,126;73548
3,128;73553
3,13;73553
3,132;73553
3,134;73549
3,136;73552
3,138;73549
3,14;73549
3,142;73555
3,144;73562
3,146;73540
3,148;73554
3,15;73554
3,152;73556
3,154;73563
3,156;73551
3,158;73563
3,16;73563
3,162;73558
3,164;73563
3,166;73558
3,168;73568
3,17;73568
3,172;73564
3,174;73575
3,176;73562
3,178;73578
3,18;73578
3,182;73572
3,184;73573
3,186;73587
3,188;73581
3,19;73581
3,192;73576
3,194;73594
3,196;73594
3,198;73585
3,2;73585
3,202;73587
3,204;73580
3,206;73595
3,208;73595
3,21;73580
3,212;73585
3,214;73609
3,216;73579
3,218;73579
3,22;73588
3,222;73589
3,224;73592
3,226;73590
3,228;73590
3,23;73590
3,232;73589
3,234;73584
3,236;73584
3,238;73584
3,24;73590
3,242;73592
3,244;73588
3,246;73585
3,248;73585
3,25;73603
3,252;73586
3,254;73591
3,256;73607
3,258;73607
3,26;73604
3,262;73603
3,264;73583
3,266;73600
3,268;73600
3,27;73616
3,272;73610
3,274;73606
3,276;73611
3,278;73611
3,28;73615
3,282;73614
3,284;73620
3,286;73626
3,288;73626
3,29;73621
3,292;73621
3,294;73640
3,296;73632
3,298;73632
3,3;73615
3,302;73622
3,304;73627
3,306;73627
3,308;73629
3,31;73625
3,312;73618
3,314;73633
3,316;73633
3,318;73630
3,32;73631
3,322;73639
3,324;73637
3,326;73637
3,328;73625
3,33;73628
3,332;73614
3,334;73627
3,336;73627
3,338;73633
3,34;73630
3,342;73632
3,344;73636
3,346;73636
3,348;73632
3,35;73621
3,352;73633
3,354;73641
3,356;73641
3,358;73649
3,36;73653
3,362;73637
3,364;73638
3,366;73638
3,368;73641
3,37;73647
3,372;73670
3,374;73655
3,376;73655
3,378;73649
3,38;73646
3,382;73649
3,384;73645
3,386;73645
3,388;73641
3,39;73646
3,392;73662
3,394;73662
3,396;73651
3,398;73641
3,4;73658
3,402;73673
3,404;73673
3,406;73653
3,408;73662
3,41;73659
3,412;73651
3,414;73651
3,416;73663
3,418;73653
3,42;73651
3,422;73657
3,424;73657
3,426;73665
3,428;73674
3,43;73659
3,432;73667
3,434;73667
3,436;73663
3,438;73663
3,44;73658
3,442;73668
3,444;73668
3,446;73670
3,448;73668
3,45;73667
3,452;73669
3,454;73669
3,456;73678
3,458;73675
3,46;73676
3,462;73674
3,464;73674
3,466;73679
3,468;73680
3,47;73694
3,472;73686
3,474;73686
3,476;73685
3,478;73680
3,48;73685
3,482;73685
3,484;73690
3,486;73688
3,488;73702
3,49;73695
3,492;73695
3,494;73685
3,496;73702
3,498;73696
3,5;73705
3,502;73705
3,504;73696
3,506;73711
3,508;73695
3,51;73703
3,512;73703
3,514;73714
3,516;73709
3,518;73710
3,52;73705
3,522;73705
3,524;73721
3,526;73711
3,528;73706
3,53;73719
3,532;73719
3,534;73704
3,536;73708
3,538;73701
3,54;73702
3,542;73702
3,544;73695
3,546;73709
3,548;73702
3,55;73690
3,552;73690
3,554;73697
3,556;73672
3,558;73687
3,56;73688
3,562;73688
3,564;73665
3,566;73664
3,568;73659
3,57;73629
3,572;73629
3,574;73630
3,576;73615
3,578;73602
3,58;73602
3,582;73586
3,584;73577
3,586;73565
3,588;73554
3,59;73554
3,592;73540
3,594;73526
3,596;73514
3,598;73512
3,6;73512
3,602;73502
3,604;73507
3,606;73487
3,608;73477
3,61;73477
3,612;73479
3,614;73466
3,616;73459
3,618;73455
3,62;73455
3,622;73462
3,624;73451
3,626;73441
3,628;73449
3,63;73449
3,632;73422
3,634;73435
3,636;73447
3,638;73447
3,64;73447
3,642;73438
3,644;73438
3,646;73429
3,648;73430
3,65;73430
3,652;73430
3,654;73422
3,656;73443
3,658;73438
3,66;73438
3,662;73448
3,664;73464
3,666;73445
3,668;73445
3,67;73441
3,672;73436
3,674;73452
3,676;73444
3,678;73444
3,68;73445
3,682;73445
3,684;73446
3,686;73454
3,688;73454
3,69;73450
3,692;73450
3,694;73448
3,696;73445
3,698;73445
3,7;73461
3,702;73460
3,704;73443
3,706;73466
3,708;73466
3,71;73448
3,712;73463
3,714;73442
3,716;73457
3,718;73457
3,72;73468
3,722;73463
3,724;73457
3,726;73470
3,728;73470
3,73;73461
3,732;73467
3,734;73469
3,736;73464
3,738;73464
3,74;73474
3,742;73464
3,744;73468
3,746;73467
3,748;73467
3,75;73462
3,752;73464
3,754;73458
3,756;73458
3,758;73469
3,76;73477
3,762;73466
3,764;73476
3,766;73476
3,768;73482
3,77;73481
3,772;73467
3,774;73470
3,776;73470
3,778;73478
3,78;73472
3,782;73468
3,784;73470
3,786;73470
3,788;73474
3,79;73472
3,792;73478
3,794;73481
3,796;73481
3,798;73488
3,8;73487
3,802;73488
3,804;73494
3,806;73494
3,808;73493
3,81;73497
3,812;73476
3,814;73496
3,816;73496
3,818;73500
3,82;73498
3,822;73518
3,824;73516
3,826;73516
3,828;73516
3,83;73507
3,832;73520
3,834;73515
3,836;73515
3,838;73497
3,84;73509
3,842;73506
3,844;73521
3,846;73521
3,848;73506
3,85;73510
3,852;73515
3,854;73515
3,856;73504
3,858;73513
3,86;73516
3,862;73523
3,864;73523
3,866;73509
3,868;73526
3,87;73519
3,872;73507
3,874;73507
3,876;73512
3,878;73519
3,88;73510
3,882;73514
3,884;73514
3,886;73501
3,888;73514
3,89;73507
3,892;73515
3,894;73515
3,896;73503
3,898;73519
3,9;73509
3,902;73513
3,904;73513
3,906;73516
3,908;73515
3,91;73517
3,912;73518
3,914;73518
3,916;73517
3,918;73524
3,92;73523
3,922;73509
3,924;73509
3,926;73527
3,928;73515
3,93;73500
3,932;73508
3,934;73508
3,936;73509
3,938;73509
3,94;73523
3,942;73523
3,944;73512
3,946;73511
3,948;73507
3,95;73515
3,952;73515
3,954;73520
3,956;73533
3,958;73524
3,96;73526
3,962;73526
3,964;73515
3,966;73530
3,968;73522
3,97;73532
3,972;73532
3,974;73530
3,976;73533
3,978;73524
3,98;73547
3,982;73547
3,984;73549
3,986;73545
3,988;73535
3,99;73547
3,992;73547
3,994;73539
3,996;73554
3,998;73538
4;73556
4,002;73556
4,004;73545
4,006;73541
4,008;73549
4,01;73555
4,012;73555
4,014;73543
4,016;73556
4,018;73557
4,02;73544
4,022;73544
4,024;73577
4,026;73572
4,028;73569
4,03;73569
4,032;73554
4,034;73564
4,036;73574
4,038;73577
4,04;73577
4,042;73564
4,044;73571
4,046;73569
4,048;73568
4,05;73568
4,052;73582
4,054;73576
4,056;73580
4,058;73588
4,06;73588
4,062;73596
4,064;73593
4,066;73583
4,068;73599
4,07;73599
4,072;73596
4,074;73592
4,076;73579
4,078;73593
4,08;73593
4,082;73592
4,084;73599
4,086;73594
4,088;73598
4,09;73598
4,092;73606
4,094;73584
4,096;73596
4,098;73595
4,1;73595
4,102;73600
4,104;73604
4,106;73604
4,108;73612
4,11;73612
4,112;73602
4,114;73622
4,116;73606
4,118;73606
4,12;73630
4,122;73611
4,124;73601
4,126;73614
4,128;73614
4,13;73616
4,132;73626
4,134;73602
4,136;73630
4,138;73630
4,14;73603
4,142;73612
4,144;73614
4,146;73615
4,148;73615
4,15;73617
4,152;73621
4,154;73616
4,156;73615
4,158;73615
4,16;73627
4,162;73617
4,164;73599
4,166;73619
4,168;73619
4,17;73633
4,172;73622
4,174;73613
4,176;73623
4,178;73623
4,18;73621
4,182;73632
4,184;73624
4,186;73632
4,188;73632
4,19;73640
4,192;73636
4,194;73647
4,196;73631
4,198;73631
4,2;73625
4,202;73634
4,204;73650
4,206;73650
4,208;73633
4,21;73641
4,212;73644
4,214;73654
4,216;73654
4,218;73649
4,22;73646
4,222;73652
4,224;73648
4,226;73648
4,228;73650
4,23;73655
4,232;73649
4,234;73651
4,236;73651
4,238;73653
4,24;73656
4,242;73650
4,244;73667
4,246;73667
4,248;73653
4,25;73668
4,252;73649
4,254;73655
4,256;73655
4,258;73661
4,26;73663
4,262;73643
4,264;73669
4,266;73669
4,268;73684
4,27;73675
4,272;73685
4,274;73673
4,276;73673
4,278;73675
4,28;73658
4,282;73675
4,284;73677
4,286;73677
4,288;73674
4,29;73676
4,292;73679
4,294;73679
4,296;73686
4,298;73669
4,3;73680
4,302;73685
4,304;73685
4,306;73694
4,308;73690
4,31;73685
4,312;73699
4,314;73699
4,316;73696
4,318;73696
4,32;73677
4,322;73667
4,324;73667
4,326;73684
4,328;73691
4,33;73691
4,332;73690
4,334;73690
4,336;73684
4,338;73687
4,34;73677
4,342;73697
4,344;73697
4,346;73688
4,348;73698
4,35;73684
4,352;73678
4,354;73678
4,356;73683
4,358;73700
4,36;73700
4,362;73706
4,364;73706
4,366;73710
4,368;73698
4,37;73713
4,372;73705
4,374;73705
4,376;73711
4,378;73705
4,38;73716
4,382;73710
4,384;73710
4,386;73717
4,388;73710
4,39;73722
4,392;73722
4,394;73723
4,396;73728
4,398;73724
4,4;73725
4,402;73725
4,404;73721
4,406;73728
4,408;73717
4,41;73721
4,412;73721
4,414;73732
4,416;73742
4,418;73722
4,42;73734
4,422;73734
4,424;73718
4,426;73728
4,428;73711
4,43;73738
4,432;73738
4,434;73691
4,436;73696
4,438;73666
4,44;73678
4,442;73678
4,444;73669
4,446;73663
4,448;73647
4,45;73632
4,452;73632
4,454;73621
4,456;73594
4,458;73603
4,46;73595
4,462;73595
4,464;73590
4,466;73562
4,468;73557
4,47;73540
4,472;73540
4,474;73532
4,476;73522
4,478;73516
4,48;73516
4,482;73495
4,484;73492
4,486;73483
4,488;73477
4,49;73477
4,492;73473
4,494;73472
4,496;73466
4,498;73459
4,5;73459
4,502;73450
4,504;73464
4,506;73445
4,508;73453
4,51;73453
4,512;73434
4,514;73434
4,516;73432
4,518;73432
4,52;73432
4,522;73434
4,524;73437
4,526;73406
4,528;73432
4,53;73432
4,532;73425
4,534;73423
4,536;73420
4,538;73421
4,54;73421
4,542;73429
4,544;73434
4,546;73426
4,548;73434
4,55;73434
4,552;73432
4,554;73428
4,556;73437
4,558;73429
4,56;73429
4,562;73429
4,564;73448
4,566;73458
4,568;73458
4,57;73443
4,572;73441
4,574;73437
4,576;73452
4,578;73452
4,58;73449
4,582;73451
4,584;73436
4,586;73459
4,588;73459
4,59;73447
4,592;73446
4,594;73444
4,596;73442
4,598;73442
4,6;73453
4,602;73450
4,604;73437
4,606;73458
4,608;73458
4,61;73451
4,612;73465
4,614;73431
4,616;73466
4,618;73466
4,62;73455
4,622;73457
4,624;73454
4,626;73467
4,628;73467
4,63;73457
4,632;73467
4,634;73456
4,636;73462
4,638;73462
4,64;73453
4,642;73445
4,644;73456
4,646;73455
4,648;73455
4,65;73450
4,652;73466
4,654;73466
4,656;73466
4,658;73462
4,66;73447
4,662;73462
4,664;73463
4,666;73463
4,668;73474
4,67;73459
4,672;73462
4,674;73481
4,676;73481
4,678;73456
4,68;73473
4,682;73474
4,684;73486
4,686;73486
4,688;73474
4,69;73475
4,692;73474
4,694;73483
4,696;73483
4,698;73487
4,7;73482
4,702;73461
4,704;73490
4,706;73490
4,708;73499
4,71;73503
4,712;73493
4,714;73499
4,716;73499
4,718;73498
4,72;73501
4,722;73524
4,724;73506
4,726;73506
4,728;73508
4,73;73510
4,732;73515
4,734;73507
4,736;73507
4,738;73508
4,74;73497
4,742;73521
4,744;73521
4,746;73501
4,748;73493
4,75;73507
4,752;73509
4,754;73509
4,756;73509
4,758;73512
4,76;73509
4,762;73532
4,764;73532
4,766;73520
4,768;73522
4,77;73519
4,772;73518
4,774;73518
4,776;73518
4,778;73523
4,78;73520
4,782;73525
4,784;73525
4,786;73506
4,788;73523
4,79;73514
4,792;73513
4,794;73513
4,796;73521
4,798;73523
4,8;73513
4,802;73522
4,804;73522
4,806;73519
4,808;73519
4,81;73519
4,812;73526
4,814;73526
4,816;73527
4,818;73530
4,82;73521
4,822;73516
4,824;73516
4,826;73510
4,828;73517
4,83;73518
4,832;73518
4,834;73523
4,836;73518
4,838;73511
4,84;73533
4,842;73533
4,844;73543
4,846;73521
4,848;73529
4,85;73531
4,852;73531
4,854;73527
4,856;73550
4,858;73519
4,86;73526
4,862;73526
4,864;73538
4,866;73544
4,868;73540
4,87;73547
4,872;73547
4,874;73550
4,876;73543
4,878;73546
4,88;73557
4,882;73557
4,884;73549
4,886;73565
4,888;73543
4,89;73570
4,892;73570
4,894;73559
4,896;73565
4,898;73557
4,9;73569
4,902;73569
4,904;73569
4,906;73557
4,908;73583
4,91;73575
4,912;73575
4,914;73578
4,916;73577
4,918;73582
4,92;73586
4,922;73586
4,924;73583
4,926;73577
4,928;73577
4,93;73577
4,932;73569
4,934;73584
4,936;73590
4,938;73593
4,94;73593
4,942;73588
4,944;73581
4,946;73593
4,948;73592
4,95;73592
4,952;73590
4,954;73597
4,956;73595
4,958;73591
4,96;73591
4,962;73593
4,964;73575
4,966;73587
4,968;73602
4,97;73602
4,972;73598
4,974;73593
4,976;73601
4,978;73600
4,98;73600
4,982;73603
4,984;73596
4,986;73600
4,988;73604
4,99;73604
4,992;73610
4,994;73610
4,996;73608
4,998;73615
5;73615
5,002;73608
5,004;73620
5,006;73622
5,008;73620
5,01;73620
5,012;73626
5,014;73640
5,016;73619
5,018;73619
5,02;73623
5,022;73615
5,024;73621
5,026;73623
5,028;73623
5,03;73628
5,032;73628
5,034;73626
5,036;73619
5,038;73619
5,04;73623
5,042;73623
5,044;73618
5,046;73631
5,048;73631
5,05;73623
5,052;73618
5,054;73630
5,056;73621
5,058;73621
5,06;73627
5,062;73634
5,064;73608
5,066;73631
5,068;73631
5,07;73631
5,072;73640
5,074;73637
5,076;73641
5,078;73641
5,08;73639
5,082;73640
5,084;73645
5,086;73651
5,088;73651
5,09;73660
5,092;73648
5,094;73657
5,096;73640
5,098;73640
5,1;73646
5,102;73648
5,104;73659
5,106;73659
5,108;73644
5,11;73669
5,112;73648
5,114;73673
5,116;73673
5,118;73658
5,12;73657
5,122;73662
5,124;73659
5,126;73659
5,128;73664
5,13;73662
5,132;73661
5,134;73672
5,136;73672
5,138;73666
5,14;73671
5,142;73659
5,144;73675
5,146;73675
5,148;73672
5,15;73674
5,152;73661
5,154;73675
5,156;73675
5,158;73668
5,16;73676
5,162;73663
5,164;73692
5,166;73692
5,168;73682
5,17;73684
5,172;73710
5,174;73691
5,176;73691
5,178;73700
5,18;73694
5,182;73689
5,184;73688
5,186;73688
5,188;73685
5,19;73694
5,192;73697
5,194;73697
5,196;73698
5,198;73693
5,2;73706
5,202;73710
5,204;73710
5,206;73696
5,208;73701
5,21;73696
5,212;73705
5,214;73705
5,216;73702
5,218;73705
5,22;73700
5,222;73691
5,224;73691
5,226;73706
5,228;73705
5,23;73706
5,232;73727
5,234;73727
5,236;73721
5,238;73706
5,24;73705
5,242;73721
5,244;73721
5,246;73712
5,248;73725
5,25;73701
5,252;73715
5,254;73715
5,256;73722
5,258;73719
5,26;73722
5,262;73731
5,264;73731
5,266;73732
5,268;73731
5,27;73732
5,272;73721
5,274;73721
5,276;73739
5,278;73728
5,28;73748
5,282;73748
5,284;73744
5,286;73729
5,288;73739
5,29;73742
5,292;73742
5,294;73751
5,296;73734
5,298;73731
5,3;73746
5,302;73746
5,304;73741
5,306;73759
5,308;73737
5,31;73754
5,312;73754
5,314;73751
5,316;73752
5,318;73741
5,32;73754
5,322;73754
5,324;73749
5,326;73753
5,328;73741
5,33;73769
5,332;73769
5,334;73751
5,336;73727
5,338;73737
5,34;73728
5,342;73728
5,344;73730
5,346;73719
5,348;73703
5,35;73685
5,352;73685
5,354;73680
5,356;73659
5,358;73663
5,36;73642
5,362;73642
5,364;73633
5,366;73641
5,368;73608
5,37;73587
5,372;73587
5,374;73578
5,376;73570
5,378;73562
5,38;73562
5,382;73539
5,384;73527
5,386;73519
5,388;73513
5,39;73513
5,392;73505
5,394;73514
5,396;73486
5,398;73486
5,4;73486
5,402;73476
5,404;73478
5,406;73457
5,408;73485
5,41;73485
5,412;73475
5,414;73462
5,416;73456
5,418;73461
5,42;73461
5,422;73459
5,424;73463
5,426;73439
5,428;73450
5,43;73450
5,432;73450
5,434;73455
5,436;73451
5,438;73448
5,44;73448
5,442;73466
5,444;73456
5,446;73455
5,448;73448
5,45;73448
5,452;73463
5,454;73461
5,456;73455
5,458;73455
5,46;73455
5,462;73449
5,464;73471
5,466;73480
5,468;73480
5,47;73472
5,472;73468
5,474;73460
5,476;73467
5,478;73467
5,48;73477
5,482;73481
5,484;73474
5,486;73466
5,488;73466
5,49;73489
5,492;73479
5,494;73468
5,496;73469
5,498;73469
5,5;73470
5,502;73483
5,504;73462
5,506;73471
5,508;73471
5,51;73470
5,512;73477
5,514;73466
5,516;73474
5,518;73474
5,52;73484
5,522;73483
5,524;73480
5,526;73485
5,528;73485
5,53;73486
5,532;73488
5,534;73481
5,536;73489
5,538;73489
5,54;73477
5,542;73479
5,544;73486
5,546;73478
5,548;73478
5,55;73472
5,552;73470
5,554;73487
5,556;73487
5,558;73480
5,56;73483
5,562;73472
5,564;73485
5,566;73485
5,568;73492
5,57;73480
5,572;73482
5,574;73482
5,576;73482
5,578;73500
5,58;73496
5,582;73483
5,584;73493
5,586;73493
5,588;73493
5,59;73495
5,592;73484
5,594;73493
5,596;73493
5,598;73504
5,6;73513
5,602;73497
5,604;73514
5,606;73514
5,608;73517
5,61;73512
5,612;73499
5,614;73512
5,616;73512
5,618;73517
5,62;73521
5,622;73535
5,624;73528
5,626;73528
5,628;73529
5,63;73520
5,632;73537
5,634;73531
5,636;73531
5,638;73535
5,64;73526
5,642;73531
5,644;73531
5,646;73532
5,648;73532
5,65;73526
5,652;73524
5,654;73524
5,656;73530
5,658;73544
5,66;73530
5,662;73533
5,664;73533
5,666;73547
5,668;73539
5,67;73539
5,672;73534
5,674;73534
5,676;73537
5,678;73539
5,68;73542
5,682;73538
5,684;73538
5,686;73536
5,688;73525
5,69;73517
5,692;73547
5,694;73547
5,696;73548
5,698;73552
5,7;73530
5,702;73534
5,704;73534
5,706;73541
5,708;73546
5,71;73539
5,712;73541
5,714;73541
5,716;73544
5,718;73541
5,72;73549
5,722;73554
5,724;73554
5,726;73545
5,728;73543
5,73;73547
5,732;73549
5,734;73549
5,736;73546
5,738;73558
5,74;73562
5,742;73562
5,744;73547
5,746;73545
5,748;73536
5,75;73559
5,752;73559
5,754;73556
5,756;73565
5,758;73545
5,76;73554
5,762;73554
5,764;73552
5,766;73558
5,768;73557
5,77;73561
5,772;73561
5,774;73565
5,776;73557
5,778;73560
5,78;73583
5,782;73583
5,784;73569
5,786;73572
5,788;73573
5,79;73576
5,792;73576
5,794;73578
5,796;73589
5,798;73578
5,8;73589
5,802;73589
5,804;73590
5,806;73576
5,808;73594
5,81;73601
5,812;73601
5,814;73597
5,816;73593
5,818;73591
5,82;73593
5,822;73593
5,824;73595
5,826;73596
5,828;73609
5,83;73609
5,832;73594
5,834;73614
5,836;73608
5,838;73611
5,84;73611
5,842;73607
5,844;73598
5,846;73602
5,848;73601
5,85;73601
5,852;73600
5,854;73600
5,856;73600
5,858;73615
5,86;73615
5,862;73618
5,864;73622
5,866;73602
5,868;73632
5,87;73632
5,872;73617
5,874;73624
5,876;73611
5,878;73624
5,88;73624
5,882;73622
5,884;73631
5,886;73621
5,888;73628
5,89;73628
5,892;73637
5,894;73638
5,896;73639
5,898;73640
5,9;73640
5,902;73632
5,904;73641
5,906;73639
5,908;73634
5,91;73634
5,912;73634
5,914;73640
5,916;73642
5,918;73642
5,92;73644
5,922;73639
5,924;73635
5,926;73635
5,928;73635
5,93;73644
5,932;73646
5,934;73651
5,936;73650
5,938;73650
5,94;73642
5,942;73650
5,944;73636
5,946;73638
5,948;73638
5,95;73645
5,952;73651
5,954;73637
5,956;73654
5,958;73654
5,96;73641
5,962;73649
5,964;73629
5,966;73663
5,968;73663
5,97;73656
5,972;73658
5,974;73655
5,976;73663
5,978;73663
5,98;73665
5,982;73665
5,984;73668
5,986;73656
5,988;73656
5,99;73665
5,992;73661
5,994;73671
5,996;73666
5,998;73666
6;73667
6,002;73675
6,004;73674
6,006;73674
6,008;73677
6,01;73671
6,012;73682
6,014;73688
6,016;73688
6,018;73669
6,02;73685
6,022;73666
6,024;73686
6,026;73686
6,028;73686
6,03;73688
6,032;73675
6,034;73676
6,036;73676
6,038;73692
6,04;73682
6,042;73675
6,044;73673
6,046;73673
6,048;73683
6,05;73692
6,052;73675
6,054;73683
6,056;73683
6,058;73680
6,06;73687
6,062;73682
6,064;73681
6,066;73681
6,068;73687
6,07;73702
6,072;73714
6,074;73690
6,076;73690
6,078;73699
6,08;73704
6,082;73704
6,084;73703
6,086;73703
6,088;73706
6,09;73714
6,092;73717
6,094;73699
6,096;73699
6,098;73709
6,1;73713
6,102;73718
6,104;73718
6,106;73714
6,108;73719
6,11;73709
6,112;73728
6,114;73728
6,116;73708
6,118;73712
6,12;73708
6,122;73694
6,124;73694
6,126;73712
6,128;73719
6,13;73721
6,132;73719
6,134;73719
6,136;73726
6,138;73731
6,14;73718
6,142;73739
6,144;73739
6,146;73724
6,148;73726
6,15;73706
6,152;73736
6,154;73736
6,156;73735
6,158;73728
6,16;73722
6,162;73736
6,164;73736
6,166;73728
6,168;73718
6,17;73737
6,172;73730
6,174;73730
6,176;73738
6,178;73740
6,18;73749
6,182;73738
6,184;73738
6,186;73746
6,188;73748
6,19;73757
6,192;73757
6,194;73749
6,196;73745
6,198;73743
6,2;73766
6,202;73766
6,204;73762
6,206;73752
6,208;73757
6,21;73754
6,212;73754
6,214;73753
6,216;73761
6,218;73750
6,22;73753
6,222;73753
6,224;73764
6,226;73762
6,228;73750
6,23;73777
6,232;73777
6,234;73757
6,236;73770
6,238;73756
6,24;73760
6,242;73760
6,244;73744
6,246;73745
6,248;73734
6,25;73729
6,252;73729
6,254;73731
6,256;73705
6,258;73711
6,26;73685
6,262;73685
6,264;73674
6,266;73659
6,268;73657
6,27;73640
6,272;73640
6,274;73640
6,276;73618
6,278;73605
6,28;73605
6,282;73587
6,284;73579
6,286;73574
6,288;73561
6,29;73561
6,292;73546
6,294;73528
6,296;73518
6,298;73514
6,3;73514
6,302;73508
6,304;73497
6,306;73487
6,308;73489
6,31;73489
6,312;73484
6,314;73478
6,316;73462
6,318;73472
6,32;73472
6,322;73473
6,324;73474
6,326;73460
6,328;73468
6,33;73468
6,332;73461
6,334;73460
6,336;73445
6,338;73459
6,34;73459
6,342;73467
6,344;73461
6,346;73465
6,348;73452
6,35;73452
6,352;73469
6,354;73456
6,356;73469
6,358;73463
6,36;73463
6,362;73466
6,364;73480
6,366;73470
6,368;73470
6,37;73464
6,372;73457
6,374;73462
6,376;73484
6,378;73484
6,38;73481
6,382;73485
6,384;73474
6,386;73482
6,388;73482
6,39;73479
6,392;73491
6,394;73484
6,396;73481
6,398;73481
6,4;73486
6,402;73491
6,404;73482
6,406;73501
6,408;73501
6,41;73494
6,412;73502
6,414;73471
6,416;73495
6,418;73495
6,42;73492
6,422;73501
6,424;73484
6,426;73504
6,428;73504
6,43;73501
6,432;73500
6,434;73522
6,436;73496
6,438;73496
6,44;73496
6,442;73502
6,444;73512
6,446;73508
6,448;73508
6,45;73501
6,452;73487
6,454;73505
6,456;73505
6,458;73509
6,46;73502
6,462;73503
6,464;73507
6,466;73507
6,468;73509
6,47;73505
6,472;73498
6,474;73509
6,476;73509
6,478;73510
6,48;73513
6,482;73514
6,484;73507
6,486;73507
6,488;73524
6,49;73517
6,492;73517
6,494;73531
6,496;73531
6,498;73532
6,5;73530
6,502;73526
6,504;73532
6,506;73532
6,508;73535
6,51;73529
6,512;73539
6,514;73540
6,516;73540
6,518;73545
6,52;73540
6,522;73573
6,524;73549
6,526;73549
6,528;73542
6,53;73547
6,532;73556
6,534;73548
6,536;73548
6,538;73552
6,54;73551
6,542;73560
6,544;73560
6,546;73549
6,548;73532
6,55;73548
6,552;73555
6,554;73555
6,556;73546
6,558;73549
6,56;73540
6,562;73548
6,564;73548
6,566;73548
6,568;73543
6,57;73549
6,572;73551
6,574;73551
6,576;73548
6,578;73564
6,58;73544
6,582;73552
6,584;73552
6,586;73552
6,588;73555
6,59;73562
6,592;73567
6,594;73567
6,596;73571
6,598;73565
6,6;73553
6,602;73561
6,604;73561
6,606;73556
6,608;73556
6,61;73547
6,612;73561
6,614;73561
6,616;73563
6,618;73555
6,62;73554
6,622;73542
6,624;73542
6,626;73549
6,628;73554
6,63;73553
6,632;73553
6,634;73561
6,636;73555
6,638;73554
6,64;73559
6,642;73559
6,644;73558
6,646;73550
6,648;73541
6,65;73561
6,652;73561
6,654;73557
6,656;73591
6,658;73557
6,66;73560
6,662;73560
6,664;73570
6,666;73563
6,668;73575
6,67;73573
6,672;73573
6,674;73580
6,676;73587
6,678;73568
6,68;73580
6,682;73580
6,684;73596
6,686;73583
6,688;73592
6,69;73592
6,692;73592
6,694;73582
6,696;73591
6,698;73595
6,7;73606
6,702;73606
6,704;73607
6,706;73574
6,708;73610
6,71;73596
6,712;73596
6,714;73600
6,716;73602
6,718;73624
6,72;73624
6,722;73609
6,724;73614
6,726;73599
6,728;73612
6,73;73612
6,732;73613
6,734;73618
6,736;73610
6,738;73608
6,74;73608
6,742;73619
6,744;73619
6,746;73624
6,748;73614
6,75;73614
6,752;73624
6,754;73626
6,756;73618
6,758;73635
6,76;73635
6,762;73624
6,764;73629
6,766;73622
6,768;73628
6,77;73628
6,772;73630
6,774;73637
6,776;73644
6,778;73648
6,78;73648
6,782;73647
6,784;73640
6,786;73655
6,788;73638
6,79;73638
6,792;73641
6,794;73642
6,796;73646
6,798;73646
6,8;73646
6,802;73638
6,804;73639
6,806;73658
6,808;73658
6,81;73643
6,812;73647
6,814;73671
6,816;73654
6,818;73654
6,82;73653
6,822;73649
6,824;73647
6,826;73659
6,828;73659
6,83;73642
6,832;73655
6,834;73639
6,836;73656
6,838;73656
6,84;73646
6,842;73653
6,844;73645
6,846;73657
6,848;73657
6,85;73663
6,852;73648
6,854;73648
6,856;73667
6,858;73667
6,86;73658
6,862;73666
6,864;73646
6,866;73673
6,868;73673
6,87;73669
6,872;73669
6,874;73669
6,876;73670
6,878;73670
6,88;73668
6,882;73673
6,884;73683
6,886;73679
6,888;73679
6,89;73684
6,892;73671
6,894;73677
6,896;73677
6,898;73682
6,9;73687
6,902;73681
6,904;73687
6,906;73687
6,908;73685
6,91;73689
6,912;73677
6,914;73685
6,916;73685
6,918;73692
6,92;73688
6,922;73691
6,924;73696
6,926;73696
6,928;73697
6,93;73682
6,932;73681
6,934;73689
6,936;73689
6,938;73690
6,94;73684
6,942;73682
6,944;73697
6,946;73697
6,948;73700
6,95;73692
6,952;73698
6,954;73694
6,956;73694
6,958;73690
6,96;73693
6,962;73699
6,964;73704
6,966;73704
6,968;73699
6,97;73709
6,972;73705
6,974;73713
6,976;73713
6,978;73702
6,98;73718
6,982;73712
6,984;73712
6,986;73716
6,988;73710
6,99;73718
6,992;73706
6,994;73706
6,996;73720
6,998;73694
7;73707
7,002;73712
7,004;73712
7,006;73710
7,008;73714
7,01;73719
7,012;73733
7,014;73733
7,016;73711
7,018;73724
7,02;73723
7,022;73722
7,024;73722
7,026;73728
7,028;73723
7,03;73721
7,032;73734
7,034;73734
7,036;73736
7,038;73740
7,04;73729
7,042;73747
7,044;73747
7,046;73732
7,048;73734
7,05;73745
7,052;73745
7,054;73745
7,056;73738
7,058;73729
7,06;73748
7,062;73739
7,064;73739
7,066;73728
7,068;73724
7,07;73725
7,072;73725
7,074;73720
7,076;73726
7,078;73715
7,08;73704
7,082;73704
7,084;73699
7,086;73692
7,088;73672
7,09;73676
7,092;73676
7,094;73660
7,096;73645
7,098;73631
7,1;73613
7,102;73613
7,104;73621
7,106;73619
7,108;73584
7,11;73566
7,112;73566
7,114;73559
7,116;73543
7,118;73529
7,12;73536
7,122;73536
7,124;73519
7,126;73520
7,128;73503
7,13;73492
7,132;73492
7,134;73501
7,136;73486
7,138;73492
7,14;73481
7,142;73481
7,144;73482
7,146;73482
7,148;73467
7,15;73459
7,152;73459
7,154;73444
7,156;73449
7,158;73461
7,16;73461
7,162;73464
7,164;73448
7,166;73446
7,168;73453
7,17;73453
7,172;73448
7,174;73449
7,176;73448
7,178;73455
7,18;73455
7,182;73446
7,184;73454
7,186;73454
7,188;73458
7,19;73458
7,192;73465
7,194;73462
7,196;73460
7,198;73448
7,2;73448
7,202;73469
7,204;73461
7,206;73459
7,208;73476
7,21;73476
7,212;73470
7,214;73474
7,216;73467
7,218;73474
7,22;73474
7,222;73474
7,224;73477
7,226;73475
7,228;73471
7,23;73471
7,232;73472
7,234;73482
7,236;73479
7,238;73490
7,24;73490
7,242;73491
7,244;73487
7,246;73498
7,248;73498
7,25;73490
7,252;73486
7,254;73493
7,256;73484
7,258;73484
7,26;73492
7,262;73473
7,264;73497
7,266;73485
7,268;73485
7,27;73496
7,272;73491
7,274;73475
7,276;73499
7,278;73499
7,28;73498
7,282;73497
7,284;73487
7,286;73489
7,288;73489
7,29;73474
7,292;73493
7,294;73493
7,296;73494
7,298;73494
7,3;73501
7,302;73496
7,304;73494
7,306;73509
7,308;73509
7,31;73519
7,312;73512
7,314;73512
7,316;73515
7,318;73515
7,32;73518
7,322;73500
7,324;73521
7,326;73516
7,328;73516
7,33;73509
7,332;73520
7,334;73527
7,336;73527
7,338;73530
7,34;73523
7,342;73535
7,344;73536
7,346;73536
7,348;73534
7,35;73528
7,352;73518
7,354;73539
7,356;73539
7,358;73525
7,36;73519
7,362;73521
7,364;73535
7,366;73535
7,368;73535
7,37;73537
7,372;73529
7,374;73543
7,376;73543
7,378;73538
7,38;73545
7,382;73540
7,384;73552
7,386;73552
7,388;73529
7,39;73555
7,392;73541
7,394;73545
7,396;73545
7,398;73557
7,4;73544
7,402;73555
7,404;73537
7,406;73537
7,408;73535
7,41;73548
7,412;73541
7,414;73534
7,416;73534
7,418;73535
7,42;73548
7,422;73551
7,424;73551
7,426;73530
7,428;73543
7,43;73544
7,432;73540
7,434;73540
7,436;73547
7,438;73541
7,44;73539
7,442;73540
7,444;73540
7,446;73540
7,448;73532
7,45;73541
7,452;73536
7,454;73536
7,456;73529
7,458;73540
7,46;73523
7,462;73536
7,464;73536
7,466;73546
7,468;73547
7,47;73530
7,472;73547
7,474;73547
7,476;73541
7,478;73552
7,48;73540
7,482;73564
7,484;73564
7,486;73559
7,488;73564
7,49;73558
7,492;73558
7,494;73558
7,496;73563
7,498;73566
7,5;73568
7,502;73556
7,504;73556
7,506;73563
7,508;73574
7,51;73572
7,512;73572
7,514;73577
7,516;73567
7,518;73571
7,52;73588
7,522;73588
7,524;73576
7,526;73575
7,528;73592
7,53;73592
7,532;73592
7,534;73582
7,536;73583
7,538;73589
7,54;73590
7,542;73590
7,544;73590
7,546;73597
7,548;73591
7,55;73589
7,552;73589
7,554;73591
7,556;73613
7,558;73593
7,56;73603
7,562;73603
7,564;73606
7,566;73604
7,568;73610
7,57;73612
7,572;73612
7,574;73606
7,576;73605
7,578;73600
7,58;73592
7,582;73592
7,584;73631
7,586;73619
7,588;73616
7,59;73617
7,592;73617
7,594;73615
7,596;73626
7,598;73642
7,6;73642
7,602;73638
7,604;73647
7,606;73645
7,608;73644
7,61;73644
7,612;73626
7,614;73629
7,616;73623
7,618;73634
7,62;73634
7,622;73636
7,624;73625
7,626;73636
7,628;73636
7,63;73636
7,632;73633
7,634;73640
7,636;73644
7,638;73637
7,64;73637
7,642;73635
7,644;73627
7,646;73638
7,648;73635
7,65;73635
7,652;73636
7,654;73640
7,656;73632
7,658;73637
7,66;73637
7,662;73635
7,664;73636
7,666;73637
7,668;73658
7,67;73658
7,672;73645
7,674;73639
7,676;73646
7,678;73652
7,68;73652
7,682;73643
7,684;73651
7,686;73653
7,688;73653
7,69;73665
7,692;73650
7,694;73642
7,696;73649
7,698;73649
7,7;73651
7,702;73649
7,704;73651
7,706;73662
7,708;73662
7,71;73661
7,712;73665
7,714;73652
7,716;73660
7,718;73660
7,72;73668
7,722;73662
7,724;73655
7,726;73664
7,728;73664
7,73;73674
7,732;73679
7,734;73658
7,736;73676
7,738;73676
7,74;73668
7,742;73669
7,744;73667
7,746;73675
7,748;73675
7,75;73673
7,752;73653
7,754;73685
7,756;73687
7,758;73687
7,76;73680
7,762;73673
7,764;73697
7,766;73689
7,768;73689
7,77;73680
7,772;73678
7,774;73702
7,776;73702
7,778;73678
7,78;73694
7,782;73691
7,784;73702
7,786;73702
7,788;73691
7,79;73693
7,792;73687
7,794;73686
7,796;73686
7,798;73703
7,8;73700
7,802;73694
7,804;73703
7,806;73703
7,808;73691
7,81;73709
7,812;73690
7,814;73697
7,816;73697
7,818;73707
7,82;73703
7,822;73707
7,824;73713
7,826;73713
7,828;73708
7,83;73707
7,832;73714
7,834;73720
7,836;73720
7,838;73731
7,84;73719
7,842;73724
7,844;73723
7,846;73723
7,848;73728
7,85;73724
7,852;73724
7,854;73717
7,856;73717
7,858;73714
7,86;73710
7,862;73720
7,864;73720
7,866;73718
7,868;73717
7,87;73717
7,872;73732
7,874;73732
7,876;73731
7,878;73731
7,88;73732
7,882;73746
7,884;73746
7,886;73740
7,888;73750
7,89;73738
7,892;73745
7,894;73745
7,896;73736
7,898;73742
7,9;73732
7,902;73746
7,904;73746
7,906;73743
7,908;73751
7,91;73736
7,912;73749
7,914;73749
7,916;73748
7,918;73752
7,92;73748
7,922;73755
7,924;73755
7,926;73743
7,928;73746
7,93;73740
7,932;73729
7,934;73729
7,936;73725
7,938;73723
7,94;73696
7,942;73695
7,944;73695
7,946;73673
7,948;73667
7,95;73668
7,952;73668
7,954;73638
7,956;73636
7,958;73623
7,96;73608
7,962;73608
7,964;73594
7,966;73594
7,968;73559
7,97;73551
7,972;73551
7,974;73545
7,976;73536
7,978;73524
7,98;73547
7,982;73547
7,984;73507
7,986;73501
7,988;73483
7,99;73493
7,992;73493
7,994;73494
7,996;73481
7,998;73455
8;73467
8,002;73467
8,004;73468
8,006;73472
8,008;73454
8,01;73455
8,012;73455
8,014;73455
8,016;73454
8,018;73459
8,02;73442
8,022;73442
8,024;73449
8,026;73451
8,028;73453
8,03;73433
8,032;73433
8,034;73437
8,036;73457
8,038;73455
8,04;73455
8,042;73460
8,044;73462
8,046;73450
8,048;73447
8,05;73447
8,052;73440
8,054;73456
8,056;73452
8,058;73444
8,06;73444
8,062;73443
8,064;73450
8,066;73448
8,068;73451
8,07;73451
8,072;73446
8,074;73458
8,076;73454
8,078;73456
8,08;73456
8,082;73458
8,084;73462
8,086;73453
8,088;73454
8,09;73454
8,092;73463
8,094;73466
8,096;73456
8,098;73461
8,1;73461
8,102;73458
8,104;73462
8,106;73459
8,108;73466
8,11;73466
8,112;73469
8,114;73474
8,116;73473
8,118;73469
8,12;73469
8,122;73458
8,124;73473
8,126;73471
8,128;73471
8,13;73462
8,132;73479
8,134;73476
8,136;73470
8,138;73470
8,14;73496
8,142;73477
8,144;73459
8,146;73466
8,148;73466
8,15;73465
8,152;73465
8,154;73456
8,156;73462
8,158;73462
8,16;73474
8,162;73472
8,164;73455
8,166;73474
8,168;73474
8,17;73484
8,172;73472
8,174;73466
8,176;73472
8,178;73472
8,18;73482
8,182;73494
8,184;73489
8,186;73502
8,188;73502
8,19;73487
8,192;73501
8,194;73497
8,196;73500
8,198;73500
8,2;73504
8,202;73492
8,204;73504
8,206;73496
8,208;73496
8,21;73501
8,212;73513
8,214;73520
8,216;73520
8,218;73511
8,22;73515
8,222;73519
8,224;73535
8,226;73535
8,228;73515
8,23;73521
8,232;73505
8,234;73518
8,236;73518
8,238;73504
8,24;73512
8,242;73513
8,244;73517
8,246;73517
8,248;73511
8,25;73521
8,252;73508
8,254;73520
8,256;73520
8,258;73514
8,26;73521
8,262;73504
8,264;73517
8,266;73517
8,268;73515
8,27;73524
8,272;73526
8,274;73512
8,276;73512
8,278;73520
8,28;73522
8,282;73527
8,284;73522
8,286;73522
8,288;73527
8,29;73530
8,292;73548
8,294;73526
8,296;73526
8,298;73547
8,3;73527
8,302;73534
8,304;73534
8,306;73533
8,308;73537
8,31;73526
8,312;73534
8,314;73534
8,316;73530
8,318;73527
8,32;73534
8,322;73512
8,324;73512
8,326;73523
8,328;73532
8,33;73526
8,332;73526
8,334;73526
8,336;73543
8,338;73533
8,34;73533
8,342;73542
8,344;73542
8,346;73534
8,348;73541
8,35;73545
8,352;73561
8,354;73561
8,356;73542
8,358;73536
8,36;73538
8,362;73547
8,364;73547
8,366;73545
8,368;73553
8,37;73548
8,372;73557
8,374;73557
8,376;73554
8,378;73559
8,38;73567
8,382;73564
8,384;73564
8,386;73566
8,388;73568
8,39;73590
8,392;73590
8,394;73572
8,396;73565
8,398;73566
8,4;73575
8,402;73575
8,404;73571
8,406;73572
8,408;73578
8,41;73596
8,412;73596
8,414;73583
8,416;73579
8,418;73582
8,42;73586
8,422;73586
8,424;73591
8,426;73587
8,428;73578
8,43;73611
8,432;73611
8,434;73599
8,436;73596
8,438;73596
8,44;73596
8,442;73596
8,444;73594
8,446;73597
8,448;73598
8,45;73601
8,452;73601
8,454;73604
8,456;73597
8,458;73594
8,46;73604
8,462;73604
8,464;73598
8,466;73613
8,468;73614
8,47;73594
8,472;73594
8,474;73604
8,476;73603
8,478;73617
8,48;73617
8,482;73600
8,484;73620
8,486;73614
8,488;73624
8,49;73624
8,492;73628
8,494;73631
8,496;73620
8,498;73623
8,5;73623
8,502;73634
8,504;73623
8,506;73615
8,508;73616
8,51;73616
8,512;73625
8,514;73625
8,516;73606
8,518;73628
8,52;73628
8,522;73621
8,524;73635
8,526;73624
8,528;73631
8,53;73631
8,532;73625
8,534;73638
8,536;73623
8,538;73639
8,54;73639
8,542;73631
8,544;73644
8,546;73632
8,548;73639
8,55;73639
8,552;73640
8,554;73641
8,556;73640
8,558;73639
8,56;73639
8,562;73628
8,564;73644
8,566;73645
8,568;73649
8,57;73649
8,572;73642
8,574;73646
8,576;73648
8,578;73648
8,58;73659
8,582;73652
8,584;73652
8,586;73656
8,588;73656
8,59;73686
8,592;73665
8,594;73665
8,596;73672
8,598;73672
8,6;73664
8,602;73669
8,604;73657
8,606;73671
8,608;73671
8,61;73666
8,612;73667
8,614;73656
8,616;73666
8,618;73666
8,62;73676
8,622;73671
8,624;73669
8,626;73684
8,628;73684
8,63;73674
8,632;73675
8,634;73670
8,636;73675
8,638;73675
8,64;73679
8,642;73686
8,644;73670
8,646;73673
8,648;73673
8,65;73701
8,652;73682
8,654;73702
8,656;73686
8,658;73686
8,66;73693
8,662;73703
8,664;73697
8,666;73697
8,668;73697
8,67;73701
8,672;73702
8,674;73704
8,676;73704
8,678;73690
8,68;73696
8,682;73697
8,684;73705
8,686;73705
8,688;73691
8,69;73701
8,692;73714
8,694;73708
8,696;73708
8,698;73708
8,7;73709
8,702;73705
8,704;73717
8,706;73717
8,708;73718
8,71;73711
8,712;73707
8,714;73716
8,716;73716
8,718;73704
8,72;73716
8,722;73719
8,724;73722
8,726;73722
8,728;73735
8,73;73713
8,732;73719
8,734;73716
8,736;73716
8,738;73725
8,74;73722
8,742;73721
8,744;73728
8,746;73728
8,748;73746
8,75;73730
8,752;73731
8,754;73731
8,756;73724
8,758;73726
8,76;73721
8,762;73736
8,764;73736
8,766;73734
8,768;73742
8,77;73743
8,772;73725
8,774;73725
8,776;73735
8,778;73737
8,78;73731
8,782;73744
8,784;73744
8,786;73734
8,788;73745
8,79;73741
8,792;73744
8,794;73744
8,796;73748
8,798;73750
8,8;73741
8,802;73753
8,804;73753
8,806;73743
8,808;73752
8,81;73738
8,812;73734
8,814;73734
8,816;73748
8,818;73739
8,82;73734
8,822;73723
8,824;73723
8,826;73722
8,828;73698
8,83;73688
8,832;73675
8,834;73675
8,836;73675
8,838;73659
8,84;73658
8,842;73658
8,844;73625
8,846;73616
8,848;73600
8,85;73579
8,852;73579
8,854;73575
8,856;73559
8,858;73544
8,86;73536
8,862;73536
8,864;73520
8,866;73513
8,868;73508
8,87;73491
8,872;73491
8,874;73500
8,876;73480
8,878;73483
8,88;73492
8,882;73492
8,884;73462
8,886;73476
8,888;73473
8,89;73475
8,892;73475
8,894;73454
8,896;73465
8,898;73455
8,9;73445
8,902;73445
8,904;73459
8,906;73452
8,908;73456
8,91;73450
8,912;73450
8,914;73454
8,916;73458
8,918;73464
8,92;73447
8,922;73447
8,924;73445
8,926;73454
8,928;73462
8,93;73436
8,932;73436
8,934;73457
8,936;73464
8,938;73471
8,94;73471
8,942;73459
8,944;73457
8,946;73465
8,948;73466
8,95;73466
8,952;73468
8,954;73463
8,956;73467
8,958;73457
8,96;73457
8,962;73473
8,964;73471
8,966;73461
8,968;73473
8,97;73473
8,972;73473
8,974;73471
8,976;73463
8,978;73468
8,98;73468
8,982;73475
8,984;73479
8,986;73475
8,988;73482
8,99;73482
8,992;73485
8,994;73483
8,996;73479
8,998;73494
9;73494
9,002;73472
9,004;73475
9,006;73478
9,008;73473
9,01;73473
9,012;73471
9,014;73480
9,016;73486
9,018;73483
9,02;73483
9,022;73476
9,024;73481
9,026;73493
9,028;73493
9,03;73483
9,032;73484
9,034;73483
9,036;73489
9,038;73489
9,04;73493
9,042;73490
9,044;73478
9,046;73480
9,048;73480
9,05;73483
9,052;73487
9,054;73491
9,056;73502
9,058;73502
9,06;73485
9,062;73487
9,064;73472
9,066;73497
9,068;73497
9,07;73494
9,072;73503
9,074;73486
9,076;73499
9,078;73499
9,08;73502
9,082;73508
9,084;73502
9,086;73511
9,088;73511
9,09;73510
9,092;73519
9,094;73526
9,096;73537
9,098;73537
9,1;73520
9,102;73528
9,104;73544
9,106;73529
9,108;73529
9,11;73535
9,112;73534
9,114;73539
9,116;73539
9,118;73526
9,12;73543
9,122;73534
9,124;73523
9,126;73523
9,128;73526
9,13;73529
9,132;73535
9,134;73537
9,136;73537
9,138;73539
9,14;73533
9,142;73529
9,144;73539
9,146;73539
9,148;73534
9,15;73536
9,152;73525
9,154;73541
9,156;73541
9,158;73528
9,16;73540
9,162;73530
9,164;73537
9,166;73537
9,168;73537
9,17;73540
9,172;73537
9,174;73536
9,176;73536
9,178;73535
9,18;73545
9,182;73532
9,184;73534
9,186;73534
9,188;73539
9,19;73540
9,192;73549
9,194;73548
9,196;73548
9,198;73565
9,2;73550
9,202;73538
9,204;73538
9,206;73539
9,208;73534
9,21;73537
9,212;73561
9,214;73561
9,216;73532
9,218;73548
9,22;73545
9,222;73540
9,224;73540
9,226;73549
9,228;73551
9,23;73553
9,232;73561
9,234;73561
9,236;73568
9,238;73558
9,24;73560
9,242;73564
9,244;73564
9,246;73577
9,248;73574
9,25;73563
9,252;73561
9,254;73561
9,256;73571
9,258;73565
9,26;73565
9,262;73571
9,264;73571
9,266;73573
9,268;73574
9,27;73572
9,272;73579
9,274;73579
9,276;73574
9,278;73577
9,28;73587
9,282;73581
9,284;73581
9,286;73587
9,288;73599
9,29;73601
9,292;73601
9,294;73597
9,296;73595
9,298;73596
9,3;73609
9,302;73609
9,304;73597
9,306;73593
9,308;73591
9,31;73602
9,312;73602
9,314;73605
9,316;73601
9,318;73599
9,32;73599
9,322;73599
9,324;73606
9,326;73610
9,328;73594
9,33;73612
9,332;73612
9,334;73607
9,336;73609
9,338;73589
9,34;73620
9,342;73620
9,344;73617
9,346;73623
9,348;73616
9,35;73625
9,352;73625
9,354;73630
9,356;73638
9,358;73630
9,36;73618
9,362;73618
9,364;73629
9,366;73617
9,368;73613
9,37;73629
9,372;73629
9,374;73619
9,376;73626
9,378;73629
9,38;73629
9,382;73618
9,384;73628
9,386;73621
9,388;73641
9,39;73641
9,392;73622
9,394;73647
9,396;73626
9,398;73640
9,4;73640
9,402;73638
9,404;73634
9,406;73637
9,408;73635
9,41;73635
9,412;73633
9,414;73634
9,416;73638
9,418;73639
9,42;73639
9,422;73644
9,424;73648
9,426;73641
9,428;73640
9,43;73640
9,432;73653
9,434;73648
9,436;73637
9,438;73646
9,44;73646
9,442;73667
9,444;73648
9,446;73656
9,448;73660
9,45;73660
9,452;73656
9,454;73651
9,456;73649
9,458;73661
9,46;73661
9,462;73667
9,464;73657
9,466;73667
9,468;73655
9,47;73655
9,472;73666
9,474;73667
9,476;73664
9,478;73664
9,48;73658
9,482;73672
9,484;73658
9,486;73666
9,488;73666
9,49;73695
9,492;73673
9,494;73664
9,496;73672
9,498;73672
9,5;73669
9,502;73682
9,504;73677
9,506;73690
9,508;73690
9,51;73686
9,512;73682
9,514;73678
9,516;73673
9,518;73673
9,52;73684
9,522;73689
9,524;73664
9,526;73677
9,528;73677
9,53;73680
9,532;73686
9,534;73680
9,536;73686
9,538;73686
9,54;73674
9,542;73688
9,544;73696
9,546;73692
9,548;73692
9,55;73698
9,552;73700
9,554;73700
9,556;73706
9,558;73706
9,56;73709
9,562;73693
9,564;73718
9,566;73718
9,568;73702
9,57;73700
9,572;73700
9,574;73713
9,576;73713
9,578;73713
9,58;73725
9,582;73705
9,584;73710
9,586;73710
9,588;73721
9,59;73710
9,592;73716
9,594;73721
9,596;73721
9,598;73725
9,6;73709
9,602;73711
9,604;73715
9,606;73715
9,608;73731
9,61;73732
9,612;73721
9,614;73734
9,616;73734
9,618;73730
9,62;73732
9,622;73747
9,624;73736
9,626;73736
9,628;73732
9,63;73731
9,632;73743
9,634;73740
9,636;73740
9,638;73752
9,64;73754
9,642;73744
9,644;73741
9,646;73741
9,648;73752
9,65;73736
9,652;73746
9,654;73746
9,656;73732
9,658;73734
9,66;73727
9,662;73720
9,664;73720
9,666;73698
9,668;73694
9,67;73678
9,672;73652
9,674;73652
9,676;73667
9,678;73635
9,68;73629
9,682;73628
9,684;73628
9,686;73620
9,688;73608
9,69;73577
9,692;73570
9,694;73570
9,696;73558
9,698;73551
9,7;73544
9,702;73531
9,704;73531
9,706;73522
9,708;73517
9,71;73502
9,712;73494
9,714;73494
9,716;73502
9,718;73494
9,72;73499
9,722;73485
9,724;73485
9,726;73488
9,728;73471
9,73;73462
9,732;73461
9,734;73461
9,736;73468
9,738;73464
9,74;73468
9,742;73468
9,744;73461
9,746;73459
9,748;73457
9,75;73459
9,752;73459
9,754;73459
9,756;73465
9,758;73472
9,76;73455
9,762;73455
9,764;73462
9,766;73463
9,768;73460
9,77;73474
9,772;73474
9,774;73474
9,776;73466
9,778;73463
9,78;73483
9,782;73483
9,784;73463
9,786;73469
9,788;73465
9,79;73488
9,792;73488
9,794;73475
9,796;73480
9,798;73469
9,8;73477
9,802;73477
9,804;73484
9,806;73483
9,808;73488
9,81;73485
9,812;73485
9,814;73493
9,816;73496
9,818;73502
9,82;73498
9,822;73498
9,824;73491
9,826;73495
9,828;73499
9,83;73499
9,832;73462
9,834;73494
9,836;73493
9,838;73505
9,84;73505
9,842;73491
9,844;73509
9,846;73496
9,848;73494
9,85;73494
9,852;73508
9,854;73499
9,856;73502
9,858;73510
9,86;73510
9,862;73493
9,864;73505
9,866;73491
9,868;73515
9,87;73515
9,872;73509
9,874;73508
9,876;73495
9,878;73515
9,88;73515
9,882;73500
9,884;73507
9,886;73513
9,888;73515
9,89;73515
9,892;73514
9,894;73519
9,896;73526
9,898;73527
9,9;73527
9,902;73528
9,904;73518
9,906;73536
9,908;73540
9,91;73540
9,912;73534
9,914;73542
9,916;73549
9,918;73549
9,92;73536
9,922;73539
9,924;73542
9,926;73551
9,928;73551
9,93;73546
9,932;73553
9,934;73547
9,936;73543
9,938;73543
9,94;73550
9,942;73550
9,944;73547
9,946;73550
9,948;73550
9,95;73549
9,952;73560
9,954;73545
9,956;73551
9,958;73551
9,96;73560
9,962;73557
9,964;73549
9,966;73558
9,968;73558
9,97;73552
9,972;73553
9,974;73535
9,976;73559
9,978;73559
9,98;73554
9,982;73567
9,984;73552
9,986;73540
9,988;73540
9,99;73558
9,992;73567
9,994;73580
9,996;73568
9,998;73568
10;73558
10,002;73555
10,004;73563
10,006;73558
10,008;73558
10,01;73567
10,012;73556
10,014;73561
10,016;73561
10,018;73555
10,02;73552
10,022;73548
10,024;73563
10,026;73563
10,028;73549
10,03;73551
10,032;73564
10,034;73556
10,036;73556
10,038;73556
10,04;73552
10,042;73559
10,044;73562
10,046;73562
10,048;73556
10,05;73569
10,052;73557
10,054;73572
10,056;73572
10,058;73572
10,06;73571
10,062;73558
10,064;73570
10,066;73570
10,068;73571
10,07;73569
10,072;73574
10,074;73566
10,076;73566
10,078;73577
10,08;73573
10,082;73574
10,084;73574
10,086;73574
10,088;73582
10,09;73582
10,092;73597
10,094;73591
10,096;73591
10,098;73604
10,1;73593
10,102;73613
10,104;73613
10,106;73591
10,108;73606
10,11;73590
10,112;73609
10,114;73609
10,116;73611
10,118;73613
10,12;73609
10,122;73583
10,124;73583
10,126;73612
10,128;73620
10,13;73611
10,132;73618
10,134;73618
10,136;73627
10,138;73641
10,14;73615
10,142;73623
10,144;73623
10,146;73625
10,148;73633
10,15;73628
10,152;73623
10,154;73623
10,156;73620
10,158;73624
10,16;73628
10,162;73637
10,164;73637
10,166;73640
10,168;73626
10,17;73638
10,172;73627
10,174;73627
10,176;73639
10,178;73640
10,18;73636
10,182;73640
10,184;73640
10,186;73633
10,188;73637
10,19;73640
10,192;73640
10,194;73636
10,196;73645
10,198;73633
10,2;73650
10,202;73650
10,204;73648
10,206;73661
10,208;73644
10,21;73654
10,212;73654
10,214;73650
10,216;73653
10,218;73650
10,22;73653
10,222;73653
10,224;73653
10,226;73658
10,228;73647
10,23;73674
10,232;73674
10,234;73649
10,236;73657
10,238;73669
10,24;73647
10,242;73647
10,244;73660
10,246;73663
10,248;73654
10,25;73656
10,252;73656
10,254;73663
10,256;73661
10,258;73664
10,26;73673
10,262;73673
10,264;73664
10,266;73672
10,268;73677
10,27;73676
10,272;73676
10,274;73661
10,276;73680
10,278;73683
10,28;73683
10,282;73668
10,284;73694
10,286;73690
10,288;73682
10,29;73682
10,292;73677
10,294;73673
10,296;73685
10,298;73684
10,3;73684
10,302;73691
10,304;73702
10,306;73702
10,308;73694
10,31;73694
10,312;73693
10,314;73684
10,316;73684
10,318;73703
10,32;73703
10,322;73690
10,324;73697
10,326;73692
10,328;73699
10,33;73699
10,332;73708
10,334;73703
10,336;73702
10,338;73702
10,34;73702
10,342;73695
10,344;73696
10,346;73706
10,348;73697
10,35;73697
10,352;73702
10,354;73707
10,356;73710
10,358;73707
10,36;73707
10,362;73713
10,364;73710
10,366;73708
10,368;73708
10,37;73705
10,372;73722
10,374;73721
10,376;73721
10,378;73721
10,38;73723
10,382;73723
10,384;73726
10,386;73724
10,388;73724
10,39;73751
10,392;73725
10,394;73724
10,396;73734
10,398;73734
10,4;73729
10,402;73731
10,404;73729
10,406;73731
10,408;73731
10,41;73735
10,412;73736
10,414;73709
10,416;73729
10,418;73729
10,42;73741
10,422;73742
10,424;73735
10,426;73745
10,428;73745
10,43;73748
10,432;73727
10,434;73734
10,436;73750
10,438;73750
10,44;73748
10,442;73755
10,444;73759
10,446;73748
10,448;73748
10,45;73748
10,452;73757
10,454;73768
10,456;73753
10,458;73753
10,46;73750
10,462;73751
10,464;73766
10,466;73766
10,468;73755
10,47;73739
10,472;73736
10,474;73752
10,476;73752
10,478;73737
10,48;73727
10,482;73722
10,484;73717
10,486;73717
10,488;73710
10,49;73706
10,492;73695
10,494;73682
10,496;73682
10,498;73669
10,5;73663
10,502;73641
10,504;73629
10,506;73629
10,508;73618
10,51;73607
10,512;73584
10,514;73589
10,516;73589
10,518;73579
10,52;73549
10,522;73555
10,524;73543
10,526;73543
10,528;73543
10,53;73526
10,532;73519
10,534;73507
10,536;73507
10,538;73494
10,54;73493
10,542;73492
10,544;73480
10,546;73480
10,548;73493
10,55;73473
10,552;73477
10,554;73477
10,556;73475
10,558;73468
10,56;73449
10,562;73466
10,564;73466
10,566;73464
10,568;73462
10,57;73454
10,572;73445
10,574;73445
10,576;73453
10,578;73450
10,58;73448
10,582;73464
10,584;73464
10,586;73467
10,588;73459
10,59;73455
10,592;73460
10,594;73460
10,596;73464
10,598;73461
10,6;73452
10,602;73464
10,604;73464
10,606;73460
10,608;73472
10,61;73466
10,612;73462
10,614;73462
10,616;73473
10,618;73470
10,62;73486
10,622;73482
10,624;73482
10,626;73475
10,628;73480
10,63;73488
10,632;73479
10,634;73479
10,636;73484
10,638;73484
10,64;73489
10,642;73489
10,644;73486
10,646;73489
10,648;73481
10,65;73491
10,652;73491
10,654;73490
10,656;73502
10,658;73494
10,66;73492
10,662;73492
10,664;73491
10,666;73484
10,668;73483
10,67;73493
10,672;73493
10,674;73487
10,676;73486
10,678;73483
10,68;73492
10,682;73492
10,684;73499
10,686;73488
10,688;73462
10,69;73490
10,692;73490
10,694;73489
10,696;73502
10,698;73480
10,7;73497
10,702;73497
10,704;73489
10,706;73493
10,708;73494
10,71;73503
10,712;73503
10,714;73492
10,716;73492
10,718;73511
10,72;73497
10,722;73497
10,724;73504
10,726;73506
10,728;73516
10,73;73516
10,732;73488
10,734;73509
10,736;73515
10,738;73527
10,74;73527
10,742;73529
10,744;73511
10,746;73518
10,748;73530
10,75;73530
10,752;73545
10,754;73538
10,756;73532
10,758;73533
10,76;73533
10,762;73544
10,764;73540
10,766;73535
10,768;73536
10,77;73536
10,772;73558
10,774;73530
10,776;73532
10,778;73548
10,78;73548
10,782;73546
10,784;73562
10,786;73544
10,788;73553
10,79;73553
10,792;73550
10,794;73543
10,796;73553
10,798;73560
10,8;73560
10,802;73542
10,804;73554
10,806;73558
10,808;73559
10,81;73559
10,812;73563
10,814;73563
10,816;73568
10,818;73568
10,82;73561
10,822;73556
10,824;73556
10,826;73561
10,828;73561
10,83;73563
10,832;73568
10,834;73556
10,836;73558
10,838;73558
10,84;73567
10,842;73567
10,844;73554
10,846;73560
10,848;73560
10,85;73559
10,852;73561
10,854;73561
10,856;73565
10,858;73565
10,86;73567
10,862;73555
10,864;73549
10,866;73552
10,868;73552
10,87;73560
10,872;73557
10,874;73556
10,876;73560
10,878;73560
10,88;73572
10,882;73556
10,884;73565
10,886;73570
10,888;73570
10,89;73565
10,892;73565
10,894;73573
10,896;73583
10,898;73583
10,9;73587
10,902;73594
10,904;73576
10,906;73576
10,908;73587
10,91;73581
10,912;73591
10,914;73591
10,916;73591
10,918;73591
10,92;73588
10,922;73586
10,924;73592
10,926;73592
10,928;73589
10,93;73594
10,932;73584
10,934;73591
10,936;73591
10,938;73600
10,94;73599
10,942;73602
10,944;73607
10,946;73607
10,948;73614
10,95;73599
10,952;73605
10,954;73620
10,956;73620
10,958;73609
10,96;73626
10,962;73597
10,964;73622
10,966;73622
10,968;73620
10,97;73623
10,972;73631
10,974;73621
10,976;73621
10,978;73625
10,98;73626
10,982;73628
10,984;73634
10,986;73634
10,988;73636
10,99;73628
10,992;73645
10,994;73645
10,996;73637
10,998;73648
11;73638
11,002;73640
11,004;73640
11,006;73637
11,008;73649
11,01;73640
11,012;73652
11,014;73652
11,016;73649
11,018;73647
11,02;73641
11,022;73626
11,024;73626
11,026;73638
11,028;73651
11,03;73645
11,032;73656
11,034;73656
11,036;73649
11,038;73655
11,04;73658
11,042;73652
11,044;73652
11,046;73652
11,048;73668
11,05;73652
11,052;73655
11,054;73655
11,056;73662
11,058;73662
11,06;73660
11,062;73673
11,064;73673
11,066;73667
11,068;73669
11,07;73663
11,072;73660
11,074;73660
11,076;73677
11,078;73663
11,08;73671
11,082;73671
11,084;73664
11,086;73665
11,088;73664
11,09;73669
11,092;73669
11,094;73668
11,096;73672
11,098;73677
11,1;73677
11,102;73677
11,104;73675
11,106;73674
11,108;73681
11,11;73681
11,112;73681
11,114;73681
11,116;73681
11,118;73679
11,12;73689
11,122;73689
11,124;73679
11,126;73687
11,128;73682
11,13;73712
11,132;73712
11,134;73694
11,136;73700
11,138;73680
11,14;73695
11,142;73695
11,144;73689
11,146;73701
11,148;73704
11,15;73704
11,152;73704
11,154;73702
11,156;73678
11,158;73715
11,16;73697
11,162;73697
11,164;73701
11,166;73704
11,168;73713
11,17;73713
11,172;73701
11,174;73701
11,176;73708
11,178;73706
11,18;73706
11,182;73703
11,184;73704
11,186;73707
11,188;73717
11,19;73717
11,192;73710
11,194;73728
11,196;73706
11,198;73721
11,2;73721
11,202;73717
11,204;73736
11,206;73722
11,208;73722
11,21;73722
11,212;73717
11,214;73736
11,216;73711
11,218;73736
11,22;73736
11,222;73729
11,224;73737
11,226;73722
11,228;73737
11,23;73737
11,232;73737
11,234;73735
11,236;73732
11,238;73722
11,24;73722
11,242;73737
11,244;73741
11,246;73737
11,248;73748
11,25;73748
11,252;73748
11,254;73740
11,256;73750
11,258;73750
11,26;73745
11,262;73749
11,264;73751
11,266;73750
11,268;73750
11,27;73745
11,272;73760
11,274;73758
11,276;73757
11,278;73757
11,28;73759
11,282;73756
11,284;73764
11,286;73767
11,288;73767
11,29;73773
11,292;73771
11,294;73756
11,296;73763
11,298;73763
11,3;73768
11,302;73766
11,304;73764
11,306;73772
11,308;73772
11,31;73778
11,312;73775
11,314;73762
11,316;73771
11,318;73771
11,32;73780
11,322;73775
11,324;73776
11,326;73772
11,328;73772
11,33;73781
11,332;73769
11,334;73779
11,336;73761
11,338;73761
11,34;73762
11,342;73735
11,344;73746
11,346;73746
11,348;73725
11,35;73720
11,352;73708
11,354;73695
11,356;73695
11,358;73681
11,36;73670
11,362;73652
11,364;73641
11,366;73641
11,368;73628
11,37;73597
11,372;73589
11,374;73578
11,376;73578
11,378;73576
11,38;73556
11,382;73544
11,384;73534
11,386;73534
11,388;73532
11,39;73519
11,392;73501
11,394;73510
11,396;73510
11,398;73510
11,4;73496
11,402;73489
11,404;73483
11,406;73483
11,408;73483
11,41;73495
11,412;73484
11,414;73474
11,416;73474
11,418;73475
11,42;73472
11,422;73501
11,424;73484
11,426;73484
11,428;73470
11,43;73475
11,432;73483
11,434;73483
11,436;73470
11,438;73474
11,44;73459
11,442;73472
11,444;73472
11,446;73468
11,448;73467
11,45;73460
11,452;73459
11,454;73459
11,456;73475
11,458;73480
11,46;73472
11,462;73463
11,464;73463
11,466;73482
11,468;73474
11,47;73480
11,472;73473
11,474;73473
11,476;73473
11,478;73481
11,48;73475
11,482;73476
11,484;73476
11,486;73474
11,488;73482
11,49;73487
11,492;73481
11,494;73481
11,496;73485
11,498;73483
11,5;73489
11,502;73488
11,504;73488
11,506;73500
11,508;73484
11,51;73504
11,512;73487
11,514;73487
11,516;73497
11,518;73494
11,52;73497
11,522;73497
11,524;73490
11,526;73494
11,528;73486
11,53;73508
11,532;73508
11,534;73491
11,536;73494
11,538;73486
11,54;73489
11,542;73489
11,544;73488
11,546;73487
11,548;73483
11,55;73486
11,552;73486
11,554;73503
11,556;73495
11,558;73480
11,56;73493
11,562;73493
11,564;73503
11,566;73495
11,568;73508
11,57;73488
11,572;73488
11,574;73496
11,576;73497
11,578;73491
11,58;73509
11,582;73509
11,584;73510
11,586;73496
11,588;73505
11,59;73500
11,592;73500
11,594;73510
11,596;73518
11,598;73517
11,6;73521
11,602;73521
11,604;73520
11,606;73521
11,608;73532
11,61;73532
11,612;73532
11,614;73537
11,616;73540
11,618;73540
11,62;73540
11,622;73545
11,624;73533
11,626;73542
11,628;73544
11,63;73544
11,632;73549
11,634;73550
11,636;73538
11,638;73567
11,64;73567
11,642;73558
11,644;73557
11,646;73541
11,648;73553
11,65;73553
11,652;73552
11,654;73559
11,656;73546
11,658;73566
11,66;73566
11,662;73567
11,664;73561
11,666;73543
11,668;73560
11,67;73560
11,672;73558
11,674;73558
11,676;73560
11,678;73562
11,68;73562
11,682;73556
11,684;73555
11,686;73562
11,688;73556
11,69;73556
11,692;73559
11,694;73555
11,696;73579
11,698;73579
11,7;73557
11,702;73560
11,704;73565
11,706;73558
11,708;73558
11,71;73561
11,712;73568
11,714;73572
11,716;73558
11,718;73558
11,72;73564
11,722;73568
11,724;73568
11,726;73566
11,728;73566
11,73;73565
11,732;73575
11,734;73558
11,736;73577
11,738;73577
11,74;73567
11,742;73571
11,744;73570
11,746;73569
11,748;73569
11,75;73575
11,752;73567
11,754;73577
11,756;73583
11,758;73583
11,76;73588
11,762;73572
11,764;73564
11,766;73575
11,768;73575
11,77;73581
11,772;73566
11,774;73575
11,776;73584
11,778;73584
11,78;73581
11,782;73584
11,784;73586
11,786;73586
11,788;73582
11,79;73591
11,792;73595
11,794;73597
11,796;73597
11,798;73600
11,8;73597
11,802;73594
11,804;73610
11,806;73610
11,808;73614
11,81;73612
11,812;73587
11,814;73598
11,816;73598
11,818;73608
11,82;73616
11,822;73601
11,824;73609
11,826;73609
11,828;73619
11,83;73626
11,832;73610
11,834;73621
11,836;73621
11,838;73616
11,84;73629
11,842;73621
11,844;73631
11,846;73631
11,848;73642
11,85;73632
11,852;73642
11,854;73646
11,856;73646
11,858;73653
11,86;73638
11,862;73645
11,864;73647
11,866;73647
11,868;73647
11,87;73650
11,872;73669
11,874;73669
11,876;73646
11,878;73643
11,88;73640
11,882;73652
11,884;73652
11,886;73645
11,888;73646
11,89;73652
11,892;73654
11,894;73654
11,896;73653
11,898;73650
11,9;73646
11,902;73658
11,904;73658
11,906;73665
11,908;73650
11,91;73641
11,912;73659
11,914;73659
11,916;73653
11,918;73668
11,92;73653
11,922;73670
11,924;73670
11,926;73659
11,928;73656
11,93;73647
11,932;73666
11,934;73666
11,936;73658
11,938;73653
11,94;73664
11,942;73670
11,944;73670
11,946;73670
11,948;73665
11,95;73671
11,952;73669
11,954;73669
11,956;73671
11,958;73670
11,96;73688
11,962;73688
11,964;73686
11,966;73692
11,968;73679
11,97;73675
11,972;73675
11,974;73672
11,976;73684
11,978;73688
11,98;73682
11,982;73682
11,984;73686
11,986;73678
11,988;73683
11,99;73688
11,992;73688
11,994;73673
11,996;73689
11,998;73679
12;73683
12,002;73683
12,004;73691
12,006;73707
12,008;73679
12,01;73693
12,012;73693
12,014;73682
12,016;73688
12,018;73676
12,02;73697
12,022;73697
12,024;73694
12,026;73702
12,028;73695
12,03;73719
12,032;73719
12,034;73709
12,036;73705
12,038;73691
12,04;73704
12,042;73704
12,044;73703
12,046;73705
12,048;73715
12,05;73715
12,052;73702
12,054;73722
12,056;73675
12,058;73713
12,06;73713
12,062;73719
12,064;73717
12,066;73699
12,068;73714
12,07;73714
12,072;73716
12,074;73728
12,076;73714
12,078;73717
12,08;73717
12,082;73727
12,084;73718
12,086;73695
12,088;73706
12,09;73706
12,092;73720
12,094;73714
12,096;73698
12,098;73721
12,1;73721
12,102;73725
12,104;73733
12,106;73721
12,108;73723
12,11;73723
12,112;73734
12,114;73748
12,116;73728
12,118;73744
12,12;73744
12,122;73737
12,124;73740
12,126;73749
12,128;73742
12,13;73742
12,132;73737
12,134;73745
12,136;73747
12,138;73752
12,14;73752
12,142;73738
12,144;73749
12,146;73746
12,148;73746
12,15;73747
12,152;73749
12,154;73740
12,156;73751
12,158;73751
12,16;73755
12,162;73756
12,164;73786
12,166;73752
12,168;73752
12,17;73763
12,172;73762
12,174;73749
12,176;73745
12,178;73745
12,18;73742
12,182;73762
12,184;73755
12,186;73761
12,188;73761
12,19;73750
12,192;73768
12,194;73747
12,196;73748
12,198;73748
12,2;73752
12,202;73752
12,204;73746
12,206;73757
12,208;73757
12,21;73737
12,212;73726
12,214;73704
12,216;73703
12,218;73703
12,22;73698
12,222;73691
12,224;73671
12,226;73658
12,228;73658
12,23;73639
12,232;73619
12,234;73617
12,236;73617
12,238;73611
12,24;73584
12,242;73576
12,244;73574
12,246;73574
12,248;73562
12,25;73555
12,252;73542
12,254;73534
12,256;73534
12,258;73512
12,26;73514
12,262;73503
12,264;73502
12,266;73502
12,268;73492
12,27;73498
12,272;73476
12,274;73485
12,276;73485
12,278;73489
12,28;73468
12,282;73463
12,284;73468
12,286;73468
12,288;73472
12,29;73475
12,292;73463
12,294;73456
12,296;73456
12,298;73472
12,3;73482
12,302;73472
12,304;73473
12,306;73473
12,308;73475
12,31;73481
12,312;73477
12,314;73472
12,316;73472
12,318;73475
12,32;73479
12,322;73505
12,324;73505
12,326;73483
12,328;73482
12,33;73493
12,332;73489
12,334;73489
12,336;73499
12,338;73489
12,34;73498
12,342;73501
12,344;73501
12,346;73482
12,348;73480
12,35;73496
12,352;73496
12,354;73496
12,356;73503
12,358;73497
12,36;73492
12,362;73495
12,364;73495
12,366;73491
12,368;73497
12,37;73498
12,372;73509
12,374;73509
12,376;73502
12,378;73506
12,38;73507
12,382;73510
12,384;73510
12,386;73514
12,388;73505
12,39;73501
12,392;73513
12,394;73513
12,396;73499
12,398;73505
12,4;73505
12,402;73500
12,404;73500
12,406;73511
12,408;73503
12,41;73516
12,412;73516
12,414;73501
12,416;73511
12,418;73511
12,42;73516
12,422;73516
12,424;73497
12,426;73512
12,428;73517
12,43;73504
12,432;73504
12,434;73509
12,436;73509
12,438;73511
12,44;73518
12,442;73518
12,444;73523
12,446;73532
12,448;73511
12,45;73516
12,452;73516
12,454;73529
12,456;73550
12,458;73530
12,46;73528
12,462;73528
12,464;73536
12,466;73540
12,468;73534
12,47;73544
12,472;73544
12,474;73533
12,476;73551
12,478;73541
12,48;73537
12,482;73537
12,484;73539
12,486;73542
12,488;73552
12,49;73550
12,492;73550
12,494;73550
12,496;73541
12,498;73559
12,5;73559
12,502;73547
12,504;73550
12,506;73544
12,508;73555
12,51;73555
12,512;73562
12,514;73564
12,516;73549
12,518;73558
12,52;73558
12,522;73548
12,524;73561
12,526;73546
12,528;73553
12,53;73553
12,532;73553
12,534;73554
12,536;73551
12,538;73550
12,54;73550
12,542;73552
12,544;73554
12,546;73545
12,548;73556
12,55;73556
12,552;73561
12,554;73559
12,556;73551
12,558;73559
12,56;73559
12,562;73558
12,564;73561
12,566;73554
12,568;73561
12,57;73561
12,572;73550
12,574;73560
12,576;73567
12,578;73556
12,58;73556
12,582;73550
12,584;73560
12,586;73568
12,588;73568
12,59;73566
12,592;73571
12,594;73564
12,596;73565
12,598;73565
12,6;73558
12,602;73573
12,604;73563
12,606;73571
12,608;73571
12,61;73554
12,612;73571
12,614;73578
12,616;73576
12,618;73576
12,62;73571
12,622;73569
12,624;73581
12,626;73581
12,628;73581
12,63;73577
12,632;73574
12,634;73577
12,636;73585
12,638;73585
12,64;73575
12,642;73595
12,644;73567
12,646;73596
12,648;73596
12,65;73599
12,652;73593
12,654;73595
12,656;73605
12,658;73605
12,66;73593
12,662;73604
12,664;73592
12,666;73604
12,668;73604
12,67;73609
12,672;73603
12,674;73608
12,676;73608
12,678;73618
12,68;73606
12,682;73607
12,684;73626
12,686;73626
12,688;73615
12,69;73624
12,692;73612
12,694;73612
12,696;73612
12,698;73621
12,7;73627
12,702;73619
12,704;73626
12,706;73626
12,708;73631
12,71;73632
12,712;73624
12,714;73626
12,716;73626
12,718;73638
12,72;73616
12,722;73620
12,724;73641
12,726;73641
12,728;73637
12,73;73636
12,732;73632
12,734;73638
12,736;73638
12,738;73628
12,74;73642
12,742;73636
12,744;73631
12,746;73631
12,748;73642
12,75;73649
12,752;73638
12,754;73634
12,756;73634
12,758;73644
12,76;73649
12,762;73656
12,764;73638
12,766;73638
12,768;73656
12,77;73656
12,772;73654
12,774;73654
12,776;73656
12,778;73655
12,78;73649
12,782;73660
12,784;73660
12,786;73651
12,788;73652
12,79;73648
12,792;73648
12,794;73648
12,796;73654
12,798;73630
12,8;73640
12,802;73649
12,804;73649
12,806;73667
12,808;73664
12,81;73662
12,812;73665
12,814;73665
12,816;73660
12,818;73666
12,82;73667
12,822;73670
12,824;73670
12,826;73663
12,828;73679
12,83;73676
12,832;73679
12,834;73679
12,836;73668
12,838;73669
12,84;73681
12,842;73680
12,844;73680
12,846;73678
12,848;73673
12,85;73684
12,852;73677
12,854;73677
12,856;73676
12,858;73692
12,86;73691
12,862;73691
12,864;73692
12,866;73682
12,868;73677
12,87;73688
12,872;73688
12,874;73690
12,876;73700
12,878;73698
12,88;73697
12,882;73697
12,884;73687
12,886;73694
12,888;73683
12,89;73690
12,892;73690
12,894;73696
12,896;73691
12,898;73691
12,9;73703
12,902;73703
12,904;73703
12,906;73706
12,908;73696
12,91;73720
12,912;73720
12,914;73706
12,916;73707
12,918;73698
12,92;73701
12,922;73701
12,924;73720
12,926;73715
12,928;73719
12,93;73706
12,932;73706
12,934;73723
12,936;73718
12,938;73735
12,94;73713
12,942;73713
12,944;73719
12,946;73718
12,948;73729
12,95;73729
12,952;73736
12,954;73727
12,956;73706
12,958;73731
12,96;73731
12,962;73740
12,964;73744
12,966;73728
12,968;73717
12,97;73717
12,972;73728
12,974;73733
12,976;73729
12,978;73734
12,98;73734
12,982;73741
12,984;73729
12,986;73730
12,988;73739
12,99;73739
12,992;73739
12,994;73732
12,996;73722
12,998;73741
13;73741
13,002;73750
13,004;73748
13,006;73746
13,008;73746
13,01;73746
13,012;73762
13,014;73756
13,016;73752
13,018;73765
13,02;73765
13,022;73753
13,024;73761
13,026;73760
13,028;73764
13,03;73764
13,032;73759
13,034;73765
13,036;73767
13,038;73767
13,04;73755
13,042;73743
13,044;73746
13,046;73755
13,048;73755
13,05;73731
13,052;73737
13,054;73717
13,056;73714
13,058;73714
13,06;73699
13,062;73693
13,064;73694
13,066;73669
13,068;73669
13,07;73652
13,072;73636
13,074;73614
13,076;73616
13,078;73616
13,08;73597
13,082;73585
13,084;73570
13,086;73573
13,088;73573
13,09;73532
13,092;73541
13,094;73532
13,096;73522
13,098;73522
13,1;73515
13,102;73502
13,104;73521
13,106;73500
13,108;73500
13,11;73487
13,112;73488
13,114;73498
13,116;73483
13,118;73483
13,12;73479
13,122;73485
13,124;73491
13,126;73491
13,128;73471
13,13;73475
13,132;73461
13,134;73468
13,136;73468
13,138;73465
13,14;73468
13,142;73451
13,144;73454
13,146;73454
13,148;73457
13,15;73464
13,152;73465
13,154;73463
13,156;73463
13,158;73478
13,16;73473
13,162;73465
13,164;73453
13,166;73453
13,168;73471
13,17;73470
13,172;73451
13,174;73474
13,176;73474
13,178;73478
13,18;73470
13,182;73463
13,184;73464
13,186;73464
13,188;73466
13,19;73472
13,192;73461
13,194;73474
13,196;73474
13,198;73486
13,2;73471
13,202;73473
13,204;73473
13,206;73473
13,208;73481
13,21;73483
13,212;73486
13,214;73486
13,216;73481
13,218;73478
13,22;73483
13,222;73494
13,224;73494
13,226;73489
13,228;73490
13,23;73486
13,232;73493
13,234;73493
13,236;73498
13,238;73490
13,24;73480
13,242;73478
13,244;73478
13,246;73488
13,248;73465
13,25;73477
13,252;73485
13,254;73485
13,256;73486
13,258;73487
13,26;73489
13,262;73497
13,264;73497
13,266;73493
13,268;73494
13,27;73493
13,272;73488
13,274;73488
13,276;73482
13,278;73505
13,28;73502
13,282;73493
13,284;73493
13,286;73494
13,288;73492
13,29;73504
13,292;73496
13,294;73496
13,296;73502
13,298;73512
13,3;73517
13,302;73517
13,304;73506
13,306;73511
13,308;73514
13,31;73511
13,312;73511
13,314;73520
13,316;73517
13,318;73520
13,32;73531
13,322;73531
13,324;73515
13,326;73526
13,328;73514
13,33;73534
13,332;73534
13,334;73531
13,336;73530
13,338;73521
13,34;73530
13,342;73530
13,344;73531
13,346;73534
13,348;73533
13,35;73536
13,352;73536
13,354;73536
13,356;73561
13,358;73535
13,36;73546
13,362;73546
13,364;73557
13,366;73541
13,368;73538
13,37;73535
13,372;73535
13,374;73525
13,376;73542
13,378;73532
13,38;73524
13,382;73524
13,384;73544
13,386;73533
13,388;73550
13,39;73541
13,392;73541
13,394;73533
13,396;73537
13,398;73545
13,4;73545
13,402;73542
13,404;73534
13,406;73531
13,408;73543
13,41;73543
13,412;73537
13,414;73544
13,416;73537
13,418;73545
13,42;73545
13,422;73544
13,424;73543
13,426;73543
13,428;73553
13,43;73553
13,432;73564
13,434;73543
13,436;73533
13,438;73545
13,44;73545
13,442;73552
13,444;73558
13,446;73550
13,448;73534
13,45;73534
13,452;73556
13,454;73559
13,456;73558
13,458;73552
13,46;73552
13,462;73554
13,464;73558
13,466;73563
13,468;73552
13,47;73552
13,472;73561
13,474;73563
13,476;73571
13,478;73566
13,48;73566
13,482;73552
13,484;73573
13,486;73577
13,488;73577
13,49;73583
13,492;73590
13,494;73573
13,496;73585
13,498;73585
13,5;73593
13,502;73577
13,504;73583
13,506;73576
13,508;73576
13,51;73584
13,512;73588
13,514;73586
13,516;73591
13,518;73591
13,52;73599
13,522;73597
13,524;73591
13,526;73595
13,528;73595
13,53;73604
13,532;73601
13,534;73593
13,536;73598
13,538;73598
13,54;73590
13,542;73609
13,544;73602
13,546;73612
13,548;73612
13,55;73617
13,552;73616
13,554;73616
13,556;73605
13,558;73605
13,56;73617
13,562;73618
13,564;73622
13,566;73616
13,568;73616
13,57;73614
13,572;73628
13,574;73634
13,576;73634
13,578;73615
13,58;73632
13,582;73640
13,584;73625
13,586;73625
13,588;73614
13,59;73630
13,592;73611
13,594;73623
13,596;73623
13,598;73624
13,6;73624
13,602;73630
13,604;73622
13,606;73622
13,608;73631
13,61;73630
13,612;73626
13,614;73638
13,616;73638
13,618;73631
13,62;73643
13,622;73626
13,624;73646
13,626;73646
13,628;73647
13,63;73638
13,632;73634
13,634;73640
13,636;73640
13,638;73645
13,64;73628
13,642;73638
13,644;73639
13,646;73639
13,648;73665
13,65;73643
13,652;73647
13,654;73648
13,656;73648
13,658;73653
13,66;73643
13,662;73653
13,664;73653
13,666;73650
13,668;73639
13,67;73648
13,672;73660
13,674;73660
13,676;73652
13,678;73658
13,68;73643
13,682;73659
13,684;73659
13,686;73646
13,688;73659
13,69;73649
13,692;73649
13,694;73649
13,696;73668
13,698;73641
13,7;73656
13,702;73659
13,704;73659
13,706;73650
13,708;73653
13,71;73642
13,712;73675
13,714;73675
13,716;73667
13,718;73668
13,72;73675
13,722;73674
13,724;73674
13,726;73670
13,728;73677
13,73;73669
13,732;73654
13,734;73654
13,736;73678
13,738;73681
13,74;73665
13,742;73675
13,744;73675
13,746;73686
13,748;73684
13,75;73683
13,752;73683
13,754;73686
13,756;73688
13,758;73682
13,76;73685
13,762;73685
13,764;73680
13,766;73679
13,768;73687
13,77;73693
13,772;73693
13,774;73690
13,776;73686
13,778;73685
13,78;73703
13,782;73703
13,784;73698
13,786;73699
13,788;73697
13,79;73712
13,792;73712
13,794;73697
13,796;73698
13,798;73682
13,8;73704
13,802;73704
13,804;73701
13,806;73719
13,808;73711
13,81;73701
13,812;73701
13,814;73717
13,816;73709
13,818;73715
13,82;73697
13,822;73697
13,824;73715
13,826;73708
13,828;73726
13,83;73710
13,832;73710
13,834;73719
13,836;73731
13,838;73730
13,84;73730
13,842;73720
13,844;73723
13,846;73715
13,848;73728
13,85;73728
13,852;73729
13,854;73730
13,856;73698
13,858;73724
13,86;73724
13,862;73719
13,864;73733
13,866;73722
13,868;73720
13,87;73720
13,872;73736
13,874;73727
13,876;73731
13,878;73750
13,88;73750
13,882;73755
13,884;73742
13,886;73730
13,888;73743
13,89;73743
13,892;73741
13,894;73742
13,896;73729
13,898;73746
13,9;73746
13,902;73736
13,904;73747
13,906;73738
13,908;73734
13,91;73734
13,912;73743
13,914;73741
13,916;73746
13,918;73719
13,92;73719
13,922;73715
13,924;73708
13,926;73704
13,928;73704
13,93;73696
13,932;73674
13,934;73669
13,936;73640
13,938;73640
13,94;73634
13,942;73623
13,944;73608
13,946;73605
13,948;73605
13,95;73584
13,952;73574
13,954;73547
13,956;73553
13,958;73553
13,96;73541
13,962;73523
13,964;73524
13,966;73501
13,968;73501
13,97;73503
13,972;73488
13,974;73465
13,976;73467
13,978;73467
13,98;73460
13,982;73472
13,984;73454
13,986;73463
13,988;73463
13,99;73427
13,992;73438
13,994;73442
13,996;73443
13,998;73443
14;73431
14,002;73444
14,004;73447
14,006;73445
14,008;73445
14,01;73441
14,012;73436
14,014;73447
14,016;73447
14,018;73451
14,02;73436
14,022;73440
14,024;73449
14,026;73449
14,028;73445
14,03;73444
14,032;73432
14,034;73445
14,036;73445
14,038;73439
14,04;73448
14,042;73447
14,044;73451
14,046;73451
14,048;73450
14,05;73432
14,052;73442
14,054;73461
14,056;73461
14,058;73440
14,06;73452
14,062;73444
14,064;73457
14,066;73457
14,068;73461
14,07;73461
14,072;73448
14,074;73457
14,076;73457
14,078;73461
14,08;73465
14,082;73457
14,084;73464
14,086;73464
14,088;73466
14,09;73467
14,092;73471
14,094;73469
14,096;73469
14,098;73473
14,1;73465
14,102;73475
14,104;73475
14,106;73475
14,108;73458
14,11;73462
14,112;73462
14,114;73462
14,116;73458
14,118;73468
14,12;73459
14,122;73464
14,124;73464
14,126;73467
14,128;73468
14,13;73463
14,132;73464
14,134;73464
14,136;73468
14,138;73468
14,14;73450
14,142;73467
14,144;73467
14,146;73463
14,148;73455
14,15;73461
14,152;73464
14,154;73464
14,156;73474
14,158;73468
14,16;73478
14,162;73475
14,164;73475
14,166;73483
14,168;73493
14,17;73490
14,172;73483
14,174;73483
14,176;73494
14,178;73494
14,18;73501
14,182;73489
14,184;73489
14,186;73493
14,188;73501
14,19;73504
14,192;73504
14,194;73500
14,196;73502
14,198;73500
14,2;73509
14,202;73509
14,204;73509
14,206;73512
14,208;73499
14,21;73513
14,212;73513
14,214;73506
14,216;73510
14,218;73506
14,22;73509
14,222;73509
14,224;73517
14,226;73516
14,228;73509
14,23;73523
14,232;73523
14,234;73516
14,236;73527
14,238;73515
14,24;73530
14,242;73530
14,244;73528
14,246;73529
14,248;73523
14,25;73521
14,252;73521
14,254;73523
14,256;73532
14,258;73525
14,26;73523
14,262;73523
14,264;73524
14,266;73525
14,268;73530
14,27;73524
14,272;73524
14,274;73536
14,276;73520
14,278;73545
14,28;73545
14,282;73517
14,284;73529
14,286;73532
14,288;73522
14,29;73522
14,292;73530
14,294;73509
14,296;73529
14,298;73540
14,3;73540
14,302;73522
14,304;73529
14,306;73538
14,308;73530
14,31;73530
14,312;73525
14,314;73540
14,316;73535
14,318;73535
14,32;73535
14,322;73533
14,324;73542
14,326;73539
14,328;73544
14,33;73544
14,332;73541
14,334;73547
14,336;73542
14,338;73542
14,34;73542
14,342;73545
14,344;73548
14,346;73540
14,348;73553
14,35;73553
14,352;73558
14,354;73553
14,356;73553
14,358;73562
14,36;73562
14,362;73553
14,364;73554
14,366;73570
14,368;73570
14,37;73564
14,372;73558
14,374;73563
14,376;73570
14,378;73570
14,38;73564
14,382;73569
14,384;73576
14,386;73571
14,388;73571
14,39;73596
14,392;73575
14,394;73563
14,396;73568
14,398;73568
14,4;73571
14,402;73573
14,404;73575
14,406;73581
14,408;73581
14,41;73583
14,412;73588
14,414;73586
14,416;73570
14,418;73570
14,42;73590
14,422;73593
14,424;73588
14,426;73597
14,428;73597
14,43;73597
14,432;73588
14,434;73589
14,436;73602
14,438;73602
14,44;73584
14,442;73597
14,444;73606
14,446;73603
14,448;73603
14,45;73610
14,452;73606
14,454;73623
14,456;73623
14,458;73604
14,46;73598
14,462;73602
14,464;73617
14,466;73617
14,468;73605
14,47;73612
14,472;73609
14,474;73617
14,476;73617
14,478;73612
14,48;73620
14,482;73633
14,484;73613
14,486;73613
14,488;73616
14,49;73624
14,492;73623
14,494;73626
14,496;73626
14,498;73625
14,5;73632
14,502;73613
14,504;73637
14,506;73637
14,508;73630
14,51;73628
14,512;73631
14,514;73633
14,516;73633
14,518;73632
14,52;73638
14,522;73642
14,524;73639
14,526;73639
14,528;73630
14,53;73645
14,532;73632
14,534;73630
14,536;73630
14,538;73637
14,54;73645
14,542;73651
14,544;73651
14,546;73639
14,548;73656
14,55;73645
14,552;73662
14,554;73662
14,556;73649
14,558;73644
14,56;73652
14,562;73652
14,564;73652
14,566;73658
14,568;73665
14,57;73654
14,572;73644
14,574;73644
14,576;73653
14,578;73652
14,58;73659
14,582;73654
14,584;73654
14,586;73660
14,588;73664
14,59;73649
14,592;73655
14,594;73655
14,596;73668
14,598;73659
14,6;73657
14,602;73657
14,604;73657
14,606;73659
14,608;73663
14,61;73659
14,612;73658
14,614;73658
14,616;73678
14,618;73679
14,62;73678
14,622;73671
14,624;73671
14,626;73684
14,628;73672
14,63;73682
14,632;73682
14,634;73696
14,636;73678
14,638;73671
14,64;73687
14,642;73687
14,644;73681
14,646;73689
14,648;73685
14,65;73682
14,652;73682
14,654;73693
14,656;73692
14,658;73688
14,66;73698
14,662;73698
14,664;73697
14,666;73697
14,668;73694
14,67;73686
14,672;73686
14,674;73692
14,676;73704
14,678;73686
14,68;73709
14,682;73709
14,684;73694
14,686;73711
14,688;73697
14,69;73695
14,692;73695
14,694;73704
14,696;73702
14,698;73703
14,7;73702
14,702;73702
14,704;73717
14,706;73704
14,708;73708
14,71;73705
14,712;73705
14,714;73692
14,716;73699
14,718;73705
14,72;73705
14,722;73717
14,724;73709
14,726;73725
14,728;73723
14,73;73723
14,732;73708
14,734;73730
14,736;73721
14,738;73730
14,74;73730
14,742;73730
14,744;73709
14,746;73710
14,748;73725
14,75;73725
14,752;73728
14,754;73722
14,756;73739
14,758;73735
14,76;73735
14,762;73729
14,764;73742
14,766;73735
14,768;73733
14,77;73733
14,772;73739
14,774;73746
14,776;73744
14,778;73747
14,78;73747
14,782;73740
14,784;73747
14,786;73738
14,788;73747
14,79;73747
14,792;73745
14,794;73740
14,796;73724
14,798;73729
14,8;73729
14,802;73714
14,804;73713
14,806;73707
14,808;73707
14,81;73699
14,812;73689
14,814;73680
14,816;73670
14,818;73670
14,82;73667
14,822;73640
14,824;73620
14,826;73613
14,828;73613
14,83;73605
14,832;73577
14,834;73576
14,836;73570
14,838;73570
14,84;73561
14,842;73550
14,844;73525
14,846;73519
14,848;73519
14,85;73510
14,852;73503
14,854;73483
14,856;73494
14,858;73494
14,86;73484
14,862;73487
14,864;73459
14,866;73470
14,868;73470
14,87;73458
14,872;73462
14,874;73456
14,876;73452
14,878;73452
14,88;73443
14,882;73455
14,884;73448
14,886;73447
14,888;73447
14,89;73437
14,892;73453
14,894;73443
14,896;73443
14,898;73440
14,9;73428
14,902;73439
14,904;73452
14,906;73452
14,908;73432
14,91;73442
14,912;73445
14,914;73442
14,916;73442
14,918;73442
14,92;73441
14,922;73446
14,924;73456
14,926;73456
14,928;73448
14,93;73451
14,932;73444
14,934;73452
14,936;73452
14,938;73452
14,94;73452
14,942;73465
14,944;73454
14,946;73454
14,948;73454
14,95;73456
14,952;73452
14,954;73453
14,956;73453
14,958;73463
14,96;73453
14,962;73451
14,964;73473
14,966;73473
14,968;73461
14,97;73471
14,972;73484
14,974;73470
14,976;73470
14,978;73467
14,98;73466
14,982;73474
14,984;73474
14,986;73463
14,988;73465
14,99;73462
14,992;73469
14,994;73469
14,996;73462
14,998;73471
15;73467
15,002;73466
15,004;73466
15,006;73460
15,008;73460
15,01;73458
15,012;73470
15,014;73470
15,016;73467
15,018;73458
15,02;73466
15,022;73453
15,024;73453
15,026;73467
15,028;73480
15,03;73468
15,032;73473
15,034;73473
15,036;73474
15,038;73473
15,04;73486
15,042;73484
15,044;73484
15,046;73489
15,048;73489
15,05;73487
15,052;73475
15,054;73475
15,056;73507
15,058;73488
15,06;73498
15,062;73504
15,064;73504
15,066;73503
15,068;73487
15,07;73514
15,072;73514
15,074;73512
15,076;73511
15,078;73507
15,08;73526
15,082;73526
15,084;73514
15,086;73501
15,088;73505
15,09;73514
15,092;73514
15,094;73520
15,096;73514
15,098;73494
15,1;73511
15,102;73511
15,104;73513
15,106;73512
15,108;73501
15,11;73514
15,112;73514
15,114;73511
15,116;73520
15,118;73511
15,12;73510
15,122;73510
15,124;73522
15,126;73524
15,128;73508
15,13;73549
15,132;73549
15,134;73527
15,136;73525
15,138;73519
15,14;73519
15,142;73519
15,144;73518
15,146;73511
15,148;73518
15,15;73526
15,152;73526
15,154;73516
15,156;73507
15,158;73527
15,16;73527
15,162;73531
15,164;73523
15,166;73523
15,168;73520
15,17;73520
15,172;73520
15,174;73528
15,176;73526
15,178;73527
15,18;73527
15,182;73525
15,184;73521
15,186;73525
15,188;73528
15,19;73528
15,192;73531
15,194;73534
15,196;73525
15,198;73528
15,2;73528
15,202;73528
15,204;73520
15,206;73530
15,208;73534
15,21;73534
15,212;73538
15,214;73549
15,216;73544
15,218;73541
15,22;73541
15,222;73534
15,224;73535
15,226;73547
15,228;73543
15,23;73543
15,232;73544
15,234;73541
15,236;73553
15,238;73556
15,24;73556
15,242;73561
15,244;73549
15,246;73570
15,248;73570
15,25;73556
15,252;73564
15,254;73559
15,256;73574
15,258;73574
15,26;73571
15,262;73570
15,264;73581
15,266;73575
15,268;73575
15,27;73576
15,272;73573
15,274;73575
15,276;73574
15,278;73574
15,28;73578
15,282;73582
15,284;73591
15,286;73591
15,288;73591
15,29;73602
15,292;73591
15,294;73581
15,296;73594
15,298;73594
15,3;73586
15,302;73580
15,304;73579
15,306;73587
15,308;73587
15,31;73593
15,312;73598
15,314;73580
15,316;73589
15,318;73589
15,32;73588
15,322;73603
15,324;73590
15,326;73605
15,328;73605
15,33;73602
15,332;73615
15,334;73619
15,336;73619
15,338;73609
15,34;73609
15,342;73609
15,344;73620
15,346;73620
15,348;73612
15,35;73606
15,352;73604
15,354;73615
15,356;73615
15,358;73609
15,36;73610
15,362;73607
15,364;73615
15,366;73615
15,368;73609
15,37;73627
15,372;73610
15,374;73617
15,376;73617
15,378;73617
15,38;73601
15,382;73618
15,384;73619
15,386;73619
15,388;73610
15,39;73617
15,392;73615
15,394;73625
15,396;73625
15,398;73631
15,4;73633
15,402;73625
15,404;73637
15,406;73637
15,408;73623
15,41;73621
15,412;73630
15,414;73634
15,416;73634
15,418;73630
15,42;73620
15,422;73674
15,424;73674
15,426;73647
15,428;73649
15,43;73650
15,432;73661
15,434;73661
15,436;73640
15,438;73641
15,44;73637
15,442;73647
15,444;73647
15,446;73647
15,448;73633
15,45;73645
15,452;73646
15,454;73646
15,456;73656
15,458;73661
15,46;73654
15,462;73652
15,464;73652
15,466;73658
15,468;73664
15,47;73658
15,472;73652
15,474;73652
15,476;73667
15,478;73659
15,48;73652
15,482;73654
15,484;73654
15,486;73672
15,488;73655
15,49;73670
15,492;73669
15,494;73669
15,496;73662
15,498;73671
15,5;73671
15,502;73667
15,504;73667
15,506;73673
15,508;73665
15,51;73667
15,512;73667
15,514;73671
15,516;73665
15,518;73663
15,52;73671
15,522;73671
15,524;73672
15,526;73676
15,528;73667
15,53;73693
15,532;73693
15,534;73670
15,536;73690
15,538;73671
15,54;73685
15,542;73685
15,544;73685
15,546;73686
15,548;73670
15,55;73682
15,552;73682
15,554;73679
15,556;73694
15,558;73685
15,56;73677
15,562;73677
15,564;73685
15,566;73677
15,568;73684
15,57;73685
15,572;73685
15,574;73692
15,576;73692
15,578;73697
15,58;73695
15,582;73695
15,584;73700
15,586;73703
15,588;73709
15,59;73705
15,592;73705
15,594;73711
15,596;73708
15,598;73714
15,6;73714
15,602;73708
15,604;73707
15,606;73694
15,608;73708
15,61;73708
15,612;73727
15,614;73710
15,616;73703
15,618;73721
15,62;73721
15,622;73719
15,624;73718
15,626;73705
15,628;73720
15,63;73720
15,632;73711
15,634;73720
15,636;73694
15,638;73697
15,64;73697
15,642;73698
15,644;73693
15,646;73690
15,648;73687
15,65;73687
15,652;73679
15,654;73661
15,656;73653
15,658;73640
15,66;73640
15,662;73622
15,664;73608
15,666;73607
15,668;73596
15,67;73596
15,672;73577
15,674;73563
15,676;73560
15,678;73545
15,68;73545
15,682;73531
15,684;73514
15,686;73507
15,688;73507
15,69;73498
15,692;73499
15,694;73486
15,696;73489
15,698;73489
15,7;73480
15,702;73467
15,704;73464
15,706;73456
15,708;73456
15,71;73469
15,712;73441
15,714;73458
15,716;73434
15,718;73434
15,72;73435
15,722;73438
15,724;73421
15,726;73435
15,728;73435
15,73;73438
15,732;73441
15,734;73435
15,736;73439
15,738;73439
15,74;73429
15,742;73437
15,744;73436
15,746;73434
15,748;73434
15,75;73434
15,752;73442
15,754;73434
15,756;73443
15,758;73443
15,76;73439
15,762;73440
15,764;73441
15,766;73453
15,768;73453
15,77;73460
15,772;73452
15,774;73457
15,776;73457
15,778;73452
15,78;73456
15,782;73449
15,784;73459
15,786;73459
15,788;73456
15,79;73452
15,792;73464
15,794;73452
15,796;73452
15,798;73460
15,8;73456
15,802;73449
15,804;73453
15,806;73453
15,808;73458
15,81;73459
15,812;73449
15,814;73456
15,816;73456
15,818;73464
15,82;73462
15,822;73452
15,824;73463
15,826;73463
15,828;73469
15,83;73467
15,832;73464
15,834;73479
15,836;73479
15,838;73471
15,84;73466
15,842;73475
15,844;73469
15,846;73469
15,848;73484
15,85;73484
15,852;73473
15,854;73464
15,856;73464
15,858;73472
15,86;73472
15,862;73485
15,864;73485
15,866;73472
15,868;73472
15,87;73484
15,872;73477
15,874;73477
15,876;73480
15,878;73472
15,88;73485
15,882;73492
15,884;73492
15,886;73502
15,888;73484
15,89;73484
15,892;73496
15,894;73496
15,896;73503
15,898;73478
15,9;73493
15,902;73502
15,904;73502
15,906;73509
15,908;73501
15,91;73505
15,912;73514
15,914;73514
15,916;73516
15,918;73517
15,92;73507
15,922;73518
15,924;73518
15,926;73521
15,928;73518
15,93;73528
15,932;73526
15,934;73526
15,936;73526
15,938;73516
15,94;73524
15,942;73524
15,944;73524
15,946;73524
15,948;73527
15,95;73533
15,952;73533
15,954;73519
15,956;73526
15,958;73522
15,96;73539
15,962;73539
15,964;73524
15,966;73510
15,968;73524
15,97;73522
15,972;73522
15,974;73521
15,976;73527
15,978;73510
15,98;73521
15,982;73521
15,984;73531
15,986;73528
15,988;73519
15,99;73525
15,992;73525
15,994;73528
15,996;73530
15,998;73523
16;73523
16,002;73523
16,004;73521
16,006;73534
16,008;73521
16,01;73516
16,012;73516
16,014;73528
16,016;73522
16,018;73527
16,02;73518
16,022;73518
16,024;73532
16,026;73540
16,028;73549
16,03;73536
16,032;73536
16,034;73544
16,036;73538
16,038;73533
16,04;73533
16,042;73550
16,044;73547
16,046;73546
16,048;73547
16,05;73547
16,052;73540
16,054;73534
16,056;73525
16,058;73538
16,06;73538
16,062;73548
16,064;73548
16,066;73535
16,068;73550
16,07;73550
16,072;73546
16,074;73544
16,076;73536
16,078;73555
16,08;73555
16,082;73561
16,084;73552
16,086;73548
16,088;73558
16,09;73558
16,092;73568
16,094;73568
16,096;73560
16,098;73573
16,1;73573
16,102;73564
16,104;73573
16,106;73572
16,108;73572
16,11;73572
16,112;73572
16,114;73572
16,116;73579
16,118;73577
16,12;73577
16,122;73579
16,124;73579
16,126;73593
16,128;73585
16,13;73585
16,132;73591
16,134;73583
16,136;73589
16,138;73589
16,14;73591
16,142;73593
16,144;73596
16,146;73587
16,148;73587
16,15;73593
16,152;73584
16,154;73591
16,156;73612
16,158;73612
16,16;73592
16,162;73599
16,164;73612
16,166;73590
16,168;73590
16,17;73598
16,172;73601
16,174;73600
16,176;73604
16,178;73604
16,18;73595
16,182;73612
16,184;73598
16,186;73607
16,188;73607
16,19;73592
16,192;73603
16,194;73604
16,196;73604
16,198;73604
16,2;73605
16,202;73591
16,204;73601
16,206;73615
16,208;73615
16,21;73609
16,212;73612
16,214;73621
16,216;73615
16,218;73615
16,22;73621
16,222;73615
16,224;73630
16,226;73630
16,228;73624
16,23;73618
16,232;73626
16,234;73634
16,236;73634
16,238;73628
16,24;73624
16,242;73625
16,244;73632
16,246;73632
16,248;73621
16,25;73625
16,252;73628
16,254;73644
16,256;73644
16,258;73638
16,26;73627
16,262;73635
16,264;73635
16,266;73635
16,268;73655
16,27;73638
16,272;73633
16,274;73634
16,276;73634
16,278;73646
16,28;73646
16,282;73646
16,284;73652
16,286;73652
16,288;73654
16,29;73654
16,292;73655
16,294;73661
16,296;73661
16,298;73667
16,3;73644
16,302;73660
16,304;73655
16,306;73655
16,308;73648
16,31;73657
16,312;73659
16,314;73659
16,316;73663
16,318;73658
16,32;73666
16,322;73694
16,324;73694
16,326;73665
16,328;73681
16,33;73665
16,332;73662
16,334;73662
16,336;73672
16,338;73665
16,34;73668
16,342;73678
16,344;73678
16,346;73671
16,348;73668
16,35;73680
16,352;73680
16,354;73680
16,356;73674
16,358;73674
16,36;73670
16,362;73689
16,364;73689
16,366;73693
16,368;73674
16,37;73673
16,372;73686
16,374;73686
16,376;73685
16,378;73691
16,38;73686
16,382;73683
16,384;73683
16,386;73699
16,388;73701
16,39;73701
16,392;73680
16,394;73680
16,396;73706
16,398;73688
16,4;73705
16,402;73705
16,404;73710
16,406;73694
16,408;73702
16,41;73690
16,412;73690
16,414;73697
16,416;73697
16,418;73705
16,42;73702
16,422;73702
16,424;73708
16,426;73711
16,428;73709
16,43;73725
16,432;73725
16,434;73723
16,436;73720
16,438;73720
16,44;73718
16,442;73718
16,444;73728
16,446;73741
16,448;73712
16,45;73716
16,452;73716
16,454;73717
16,456;73735
16,458;73724
16,46;73724
16,462;73724
16,464;73724
16,466;73715
16,468;73711
16,47;73717
16,472;73717
16,474;73713
16,476;73704
16,478;73696
16,48;73684
16,482;73684
16,484;73673
16,486;73648
16,488;73654
16,49;73654
16,492;73635
16,494;73627
16,496;73610
16,498;73602
16,5;73602
16,502;73586
16,504;73576
16,506;73534
16,508;73546
16,51;73546
16,512;73531
16,514;73511
16,516;73500
16,518;73492
16,52;73492
16,522;73487
16,524;73473
16,526;73466
16,528;73461
16,53;73461
16,532;73471
16,534;73465
16,536;73456
16,538;73453
16,54;73453
16,542;73457
16,544;73442
16,546;73435
16,548;73432
16,55;73432
16,552;73443
16,554;73444
16,556;73431
16,558;73440
16,56;73440
16,562;73429
16,564;73425
16,566;73432
16,568;73419
16,57;73419
16,572;73426
16,574;73425
16,576;73432
16,578;73422
16,58;73422
16,582;73423
16,584;73427
16,586;73438
16,588;73438
16,59;73423
16,592;73426
16,594;73424
16,596;73435
16,598;73435
16,6;73432
16,602;73429
16,604;73424
16,606;73428
16,608;73428
16,61;73422
16,612;73431
16,614;73442
16,616;73436
16,618;73436
16,62;73437
16,622;73444
16,624;73426
16,626;73437
16,628;73437
16,63;73454
16,632;73439
16,634;73441
16,636;73453
16,638;73453
16,64;73441
16,642;73452
16,644;73446
16,646;73442
16,648;73442
16,65;73441
16,652;73453
16,654;73455
16,656;73451
16,658;73451
16,66;73448
16,662;73454
16,664;73438
16,666;73444
16,668;73444
16,67;73442
16,672;73457
16,674;73458
16,676;73458
16,678;73455
16,68;73455
16,682;73452
16,684;73447
16,686;73447
16,688;73452
16,69;73443
16,692;73450
16,694;73445
16,696;73445
16,698;73458
16,7;73452
16,702;73441
16,704;73449
16,706;73449
16,708;73466
16,71;73451
16,712;73445
16,714;73452
16,716;73452
16,718;73455
16,72;73450
16,722;73442
16,724;73461
16,726;73461
16,728;73457
16,73;73472
16,732;73478
16,734;73471
16,736;73471
16,738;73480
16,74;73475
16,742;73485
16,744;73483
16,746;73483
16,748;73483
16,75;73490
16,752;73489
16,754;73476
16,756;73476
16,758;73495
16,76;73490
16,762;73501
16,764;73501
16,766;73505
16,768;73501
16,77;73505
16,772;73511
16,774;73511
16,776;73500
16,778;73495
16,78;73495
16,782;73499
16,784;73499
16,786;73506
16,788;73501
16,79;73488
16,792;73506
16,794;73506
16,796;73514
16,798;73481
16,8;73499
16,802;73496
16,804;73496
16,806;73499
16,808;73507
16,81;73492
16,812;73500
16,814;73500
16,816;73516
16,818;73502
16,82;73501
16,822;73503
16,824;73503
16,826;73507
16,828;73499
16,83;73518
16,832;73515
16,834;73515
16,836;73513
16,838;73509
16,84;73520
16,842;73514
16,844;73514
16,846;73510
16,848;73511
16,85;73508
16,852;73508
16,854;73511
16,856;73514
16,858;73512
16,86;73520
16,862;73520
16,864;73514
16,866;73508
16,868;73528
16,87;73521
16,872;73521
16,874;73514
16,876;73525
16,878;73517
16,88;73515
16,882;73515
16,884;73521
16,886;73522
16,888;73513
16,89;73520
16,892;73520
16,894;73519
16,896;73529
16,898;73521
16,9;73532
16,902;73532
16,904;73523
16,906;73556
16,908;73509
16,91;73534
16,912;73534
16,914;73535
16,916;73533
16,918;73530
16,92;73530
16,922;73530
16,924;73526
16,926;73543
16,928;73547
16,93;73545
16,932;73545
16,934;73550
16,936;73547
16,938;73557
16,94;73557
16,942;73562
16,944;73552
16,946;73553
16,948;73559
16,95;73559
16,952;73561
16,954;73553
16,956;73533
16,958;73564
16,96;73564
16,962;73564
16,964;73561
16,966;73562
16,968;73556
16,97;73556
16,972;73561
16,974;73576
16,976;73561
16,978;73568
16,98;73568
16,982;73577
16,984;73576
16,986;73563
16,988;73575
16,99;73575
16,992;73582
16,994;73581
16,996;73574
16,998;73583
17;73583
17,002;73583
17,004;73577
17,006;73569
17,008;73572
17,01;73572
17,012;73577
17,014;73575
17,016;73585
17,018;73591
17,02;73591
17,022;73578
17,024;73593
17,026;73587
17,028;73587
17,03;73579
17,032;73596
17,034;73604
17,036;73610
17,038;73610
17,04;73599
17,042;73606
17,044;73594
17,046;73597
17,048;73597
17,05;73605
17,052;73595
17,054;73604
17,056;73605
17,058;73605
17,06;73604
17,062;73609
17,064;73622
17,066;73609
17,068;73609
17,07;73621
17,072;73620
17,074;73613
17,076;73624
17,078;73624
17,08;73616
17,082;73610
17,084;73606
17,086;73619
17,088;73619
17,09;73609
17,092;73610
17,094;73606
17,096;73615
17,098;73615
17,1;73619
17,102;73627
17,104;73600
17,106;73621
17,108;73621
17,11;73627
17,112;73615
17,114;73632
17,116;73632
17,118;73632
17,12;73623
17,122;73612
17,124;73616
17,126;73616
17,128;73613
17,13;73630
17,132;73616
17,134;73633
17,136;73633
17,138;73625
17,14;73637
17,142;73634
17,144;73636
17,146;73636
17,148;73638
17,15;73637
17,152;73637
17,154;73640
17,156;73640
17,158;73628
17,16;73641
17,162;73651
17,164;73643
17,166;73643
17,168;73654
17,17;73642
17,172;73642
17,174;73647
17,176;73647
17,178;73646
17,18;73638
17,182;73642
17,184;73645
17,186;73645
17,188;73651
17,19;73645
17,192;73655
17,194;73658
17,196;73658
17,198;73665
17,2;73651
17,202;73664
17,204;73656
17,206;73656
17,208;73659
17,21;73660
17,212;73667
17,214;73667
17,216;73658
17,218;73658
17,22;73661
17,222;73676
17,224;73676
17,226;73665
17,228;73668
17,23;73661
17,232;73668
17,234;73668
17,236;73684
17,238;73674
17,24;73669
17,242;73677
17,244;73677
17,246;73683
17,248;73653
17,25;73666
17,252;73684
17,254;73684
17,256;73684
17,258;73685
17,26;73677
17,262;73684
17,264;73684
17,266;73689
17,268;73687
17,27;73681
17,272;73696
17,274;73696
17,276;73688
17,278;73703
17,28;73696
17,282;73699
17,284;73699
17,286;73690
17,288;73697
17,29;73705
17,292;73699
17,294;73699
17,296;73694
17,298;73697
17,3;73720
17,302;73720
17,304;73706
17,306;73691
17,308;73690
17,31;73695
17,312;73695
17,314;73687
17,316;73690
17,318;73683
17,32;73681
17,322;73681
17,324;73656
17,326;73667
17,328;73642
17,33;73638
17,332;73638
17,334;73627
17,336;73610
17,338;73589
17,34;73590
17,342;73590
17,344;73581
17,346;73558
17,348;73544
17,35;73547
17,352;73547
17,354;73533
17,356;73537
17,358;73494
17,36;73490
17,362;73490
17,364;73487
17,366;73457
17,368;73456
17,37;73454
17,372;73454
17,374;73446
17,376;73453
17,378;73442
17,38;73421
17,382;73421
17,384;73441
17,386;73435
17,388;73436
17,39;73436
17,392;73420
17,394;73422
17,396;73414
17,398;73424
17,4;73424
17,402;73415
17,404;73422
17,406;73390
17,408;73429
17,41;73429
17,412;73403
17,414;73402
17,416;73395
17,418;73391
17,42;73391
17,422;73402
17,424;73404
17,426;73414
17,428;73410
17,43;73410
17,432;73417
17,434;73424
17,436;73407
17,438;73411
17,44;73411
17,442;73420
17,444;73430
17,446;73426
17,448;73422
17,45;73422
17,452;73427
17,454;73427
17,456;73432
17,458;73429
17,46;73429
17,462;73432
17,464;73429
17,466;73444
17,468;73435
17,47;73435
17,472;73434
17,474;73437
17,476;73439
17,478;73439
17,48;73435
17,482;73433
17,484;73437
17,486;73434
17,488;73434
17,49;73439
17,492;73434
17,494;73441
17,496;73426
17,498;73426
17,5;73433
17,502;73439
17,504;73438
17,506;73437
17,508;73437
17,51;73425
17,512;73434
17,514;73442
17,516;73429
17,518;73429
17,52;73428
17,522;73437
17,524;73426
17,526;73429
17,528;73429
17,53;73431
17,532;73428
17,534;73431
17,536;73442
17,538;73442
17,54;73441
17,542;73435
17,544;73455
17,546;73446
17,548;73446
17,55;73456
17,552;73440
17,554;73448
17,556;73425
17,558;73425
17,56;73438
17,562;73457
17,564;73441
17,566;73441
17,568;73457
17,57;73445
17,572;73459
17,574;73472
17,576;73472
17,578;73469
17,58;73465
17,582;73459
17,584;73466
17,586;73466
17,588;73473
17,59;73471
17,592;73470
17,594;73478
17,596;73478
17,598;73477
17,6;73481
17,602;73478
17,604;73488
17,606;73488
17,608;73478
17,61;73471
17,612;73469
17,614;73482
17,616;73482
17,618;73484
17,62;73477
17,622;73470
17,624;73482
17,626;73482
17,628;73473
17,63;73492
17,632;73478
17,634;73483
17,636;73483
17,638;73490
17,64;73494
17,642;73495
17,644;73484
17,646;73484
17,648;73504
17,65;73501
17,652;73492
17,654;73500
17,656;73500
17,658;73497
17,66;73504
17,662;73505
17,664;73505
17,666;73503
17,668;73510
17,67;73500
17,672;73513
17,674;73513
17,676;73494
17,678;73495
17,68;73501
17,682;73495
17,684;73495
17,686;73499
17,688;73495
17,69;73493
17,692;73503
17,694;73503
17,696;73488
17,698;73485
17,7;73491
17,702;73506
17,704;73506
17,706;73500
17,708;73502
17,71;73486
17,712;73497
17,714;73497
17,716;73497
17,718;73505
17,72;73504
17,722;73506
17,724;73506
17,726;73499
17,728;73510
17,73;73506
17,732;73514
17,734;73514
17,736;73506
17,738;73513
17,74;73517
17,742;73518
17,744;73518
17,746;73512
17,748;73513
17,75;73519
17,752;73519
17,754;73519
17,756;73529
17,758;73524
17,76;73525
17,762;73525
17,764;73519
17,766;73523
17,768;73520
17,77;73526
17,772;73526
17,774;73523
17,776;73534
17,778;73527
17,78;73542
17,782;73542
17,784;73540
17,786;73540
17,788;73533
17,79;73547
17,792;73547
17,794;73555
17,796;73547
17,798;73548
17,8;73550
17,802;73550
17,804;73557
17,806;73572
17,808;73549
17,81;73562
17,812;73562
17,814;73552
17,816;73572
17,818;73555
17,82;73556
17,822;73556
17,824;73562
17,826;73567
17,828;73554
17,83;73569
17,832;73569
17,834;73587
17,836;73566
17,838;73580
17,84;73580
17,842;73573
17,844;73582
17,846;73571
17,848;73568
17,85;73568
17,852;73582
17,854;73574
17,856;73559
17,858;73592
17,86;73592
17,862;73579
17,864;73590
17,866;73580
17,868;73589
17,87;73589
17,872;73581
17,874;73591
17,876;73581
17,878;73600
17,88;73600
17,882;73600
17,884;73587
17,886;73590
17,888;73596
17,89;73596
17,892;73603
17,894;73586
17,896;73594
17,898;73587
17,9;73587
17,902;73598
17,904;73607
17,906;73589
17,908;73591
17,91;73591
17,912;73597
17,914;73599
17,916;73600
17,918;73595
17,92;73595
17,922;73604
17,924;73597
17,926;73613
17,928;73613
17,93;73598
17,932;73607
17,934;73607
17,936;73608
17,938;73608
17,94;73623
17,942;73607
17,944;73616
17,946;73615
17,948;73615
17,95;73611
17,952;73626
17,954;73610
17,956;73621
17,958;73621
17,96;73623
17,962;73622
17,964;73642
17,966;73627
17,968;73627
17,97;73625
17,972;73634
17,974;73623
17,976;73628
17,978;73628
17,98;73622
17,982;73636
17,984;73622
17,986;73641
17,988;73641
17,99;73626
17,992;73635
17,994;73643
17,996;73647
17,998;73647
18;73645
18,002;73654
18,004;73648
18,006;73651
18,008;73651
18,01;73651
18,012;73626
18,014;73670
18,016;73670
18,018;73653
18,02;73648
18,022;73644
18,024;73652
18,026;73652
18,028;73653
18,03;73660
18,032;73649
18,034;73654
18,036;73654
18,038;73650
18,04;73671
18,042;73656
18,044;73660
18,046;73660
18,048;73669
18,05;73665
18,052;73656
18,054;73671
18,056;73671
18,058;73667
18,06;73670
18,062;73661
18,064;73672
18,066;73672
18,068;73682
18,07;73677
18,072;73659
18,074;73680
18,076;73680
18,078;73689
18,08;73688
18,082;73692
18,084;73686
18,086;73686
18,088;73681
18,09;73688
18,092;73701
18,094;73694
18,096;73694
18,098;73707
18,1;73695
18,102;73694
18,104;73694
18,106;73693
18,108;73697
18,11;73694
18,112;73707
18,114;73707
18,116;73703
18,118;73697
18,12;73692
18,122;73700
18,124;73700
18,126;73694
18,128;73689
18,13;73693
18,132;73703
18,134;73703
18,136;73711
18,138;73711
18,14;73712
18,142;73707
18,144;73707
18,146;73717
18,148;73689
18,15;73705
18,152;73714
18,154;73714
18,156;73707
18,158;73703
18,16;73709
18,162;73707
18,164;73707
18,166;73713
18,168;73698
18,17;73695
18,172;73693
18,174;73693
18,176;73686
18,178;73676
18,18;73670
18,182;73659
18,184;73659
18,186;73643
18,188;73638
18,19;73624
18,192;73624
18,194;73609
18,196;73584
18,198;73583
18,2;73587
18,202;73587
18,204;73555
18,206;73549
18,208;73537
18,21;73526
18,212;73526
18,214;73505
18,216;73512
18,218;73489
18,22;73482
18,222;73482
18,224;73481
18,226;73461
18,228;73447
18,23;73462
18,232;73462
18,234;73448
18,236;73438
18,238;73439
18,24;73446
18,242;73446
18,244;73439
18,246;73431
18,248;73421
18,25;73425
18,252;73425
18,254;73433
18,256;73455
18,258;73425
18,26;73429
18,262;73429
18,264;73424
18,266;73427
18,268;73428
18,27;73438
18,272;73438
18,274;73431
18,276;73427
18,278;73428
18,28;73428
18,282;73403
18,284;73440
18,286;73428
18,288;73435
18,29;73435
18,292;73432
18,294;73440
18,296;73436
18,298;73434
18,3;73434
18,302;73448
18,304;73435
18,306;73437
18,308;73434
18,31;73434
18,312;73443
18,314;73434
18,316;73440
18,318;73439
18,32;73439
18,322;73441
18,324;73444
18,326;73438
18,328;73446
18,33;73446
18,332;73435
18,334;73440
18,336;73447
18,338;73466
18,34;73466
18,342;73453
18,344;73459
18,346;73456
18,348;73453
18,35;73453
18,352;73459
18,354;73462
18,356;73457
18,358;73451
18,36;73451
18,362;73462
18,364;73458
18,366;73473
18,368;73473
18,37;73459
18,372;73467
18,374;73466
18,376;73467
18,378;73467
18,38;73477
18,382;73468
18,384;73477
18,386;73451
18,388;73451
18,39;73475
18,392;73463
18,394;73457
18,396;73475
18,398;73475
18,4;73474
18,402;73467
18,404;73452
18,406;73477
18,408;73477
18,41;73475
18,412;73479
18,414;73470
18,416;73474
18,418;73474
18,42;73483
18,422;73482
18,424;73476
18,426;73475
18,428;73475
18,43;73488
18,432;73495
18,434;73492
18,436;73496
18,438;73496
18,44;73487
18,442;73499
18,444;73506
18,446;73500
18,448;73500
18,45;73511
18,452;73508
18,454;73519
18,456;73519
18,458;73513
18,46;73507
18,462;73503
18,464;73526
18,466;73526
18,468;73513
18,47;73503
18,472;73508
18,474;73509
18,476;73509
18,478;73516
18,48;73514
18,482;73508
18,484;73507
18,486;73507
18,488;73509
18,49;73512
18,492;73509
18,494;73504
18,496;73504
18,498;73519
18,5;73516
18,502;73520
18,504;73519
18,506;73519
18,508;73519
18,51;73527
18,512;73510
18,514;73508
18,516;73508
18,518;73510
18,52;73507
18,522;73505
18,524;73504
18,526;73504
18,528;73511
18,53;73505
18,532;73522
18,534;73513
18,536;73513
18,538;73511
18,54;73503
18,542;73521
18,544;73521
18,546;73518
18,548;73534
18,55;73514
18,552;73510
18,554;73510
18,556;73519
18,558;73513
18,56;73496
18,562;73521
18,564;73521
18,566;73514
18,568;73521
18,57;73521
18,572;73516
18,574;73516
18,576;73516
18,578;73525
18,58;73524
18,582;73532
18,584;73532
18,586;73536
18,588;73530
18,59;73517
18,592;73528
18,594;73528
18,596;73530
18,598;73524
18,6;73531
18,602;73533
18,604;73533
18,606;73537
18,608;73544
18,61;73532
18,612;73536
18,614;73536
18,616;73537
18,618;73543
18,62;73541
18,622;73540
18,624;73540
18,626;73548
18,628;73545
18,63;73553
18,632;73553
18,634;73547
18,636;73560
18,638;73547
18,64;73557
18,642;73557
18,644;73561
18,646;73552
18,648;73566
18,65;73559
18,652;73559
18,654;73571
18,656;73560
18,658;73560
18,66;73570
18,662;73570
18,664;73572
18,666;73564
18,668;73567
18,67;73571
18,672;73571
18,674;73575
18,676;73570
18,678;73561
18,68;73582
18,682;73582
18,684;73579
18,686;73585
18,688;73591
18,69;73582
18,692;73582
18,694;73587
18,696;73587
18,698;73583
18,7;73576
18,702;73576
18,704;73586
18,706;73581
18,708;73581
18,71;73591
18,712;73591
18,714;73584
18,716;73585
18,718;73599
18,72;73599
18,722;73595
18,724;73591
18,726;73577
18,728;73590
18,73;73590
18,732;73567
18,734;73585
18,736;73582
18,738;73583
18,74;73583
18,742;73600
18,744;73592
18,746;73595
18,748;73598
18,75;73598
18,752;73592
18,754;73591
18,756;73586
18,758;73611
18,76;73611
18,762;73586
18,764;73603
18,766;73593
18,768;73603
18,77;73603
18,772;73618
18,774;73610
18,776;73611
18,778;73615
18,78;73615
18,782;73614
18,784;73608
18,786;73627
18,788;73625
18,79;73625
18,792;73619
18,794;73627
18,796;73634
18,798;73625
18,8;73625
18,802;73623
18,804;73619
18,806;73615
18,808;73615
18,81;73627
18,812;73622
18,814;73637
18,816;73612
18,818;73612
18,82;73623
18,822;73616
18,824;73621
18,826;73626
18,828;73626
18,83;73620
18,832;73614
18,834;73621
18,836;73623
18,838;73623
18,84;73642
18,842;73631
18,844;73630
18,846;73626
18,848;73626
18,85;73633
18,852;73644
18,854;73635
18,856;73647
18,858;73647
18,86;73637
18,862;73638
18,864;73632
18,866;73642
18,868;73642
18,87;73643
18,872;73643
18,874;73647
